t (s),FA (mol/s),FB (mol/s),FC (mol/s),FP (mol/s),XA,θA,θB,θC,θP,θV
1.0000000000000001e-7,2.778654778142771,5.557309556285547,2.990967951573889e-15,0.0,0.9999972213452218,0.009999674854042018,0.01999934971394461,5.860578427393554e-12,0.0,0.9700009754261528
1.1758495540521568e-7,2.79384848794727,5.587696975894547,4.888982752480718e-15,0.0,0.9999972061515121,0.01175815698008858,0.023516313969705136,9.527979756738087e-12,0.0,0.9647255290406784
1.382622173764656e-7,2.811928050175782,5.62385610035157,7.998407668137836e-15,0.0,0.9999971880719498,0.013825865902342725,0.027651731820175766,1.549031808978226e-11,0.0,0.9585224022619913
1.6257556664437941e-7,2.8334880944285628,5.6669761888571415,1.31062975541206e-14,0.0,0.9999971665119056,0.016257178439110266,0.032514356903404214,2.5183676417131954e-11,0.0,0.9512284646323019
1.9116440753857023e-7,2.8592667258528577,5.7185334517057385,2.1498244308606173e-14,0.0,0.9999971407332742,0.019116033326044158,0.0382320666930311,4.094277724677285e-11,0.0,0.9426518999399819
2.2478058335487253e-7,2.890184979343532,5.780369958687099,3.53296107937345e-14,0.0,0.9999971098150207,0.02247761259058348,0.04495522524773028,6.656331157043961e-11,0.0,0.9325671620951229
2.6430814869741053e-7,2.9274053841623027,5.854810768324658,5.819194239613292e-14,0.0,0.9999970725946158,0.026430318560100422,0.05286063722841701,1.0821614309674585e-10,0.0,0.9207090441032664
3.107866187782013e-7,2.972418597991571,5.944837195983242,9.60348732111913e-14,0.0,0.999997027581402,0.031078098481335505,0.062156197138604596,1.75933582486069e-10,0.0,0.9067657042041263
3.654383070957256e-7,3.0271501308628435,6.05430026172585,1.5900007938912062e-13,0.0,0.9999969728498691,0.0365431778587751,0.07308635600357592,2.860256883237803e-10,0.0,0.8903704658516233
4.297004704320841e-7,3.0941405456449043,6.188281091290076,2.6422988603505456e-13,0.0,0.9999969058594543,0.042969274356770726,0.08593854917855004,4.650085698314272e-10,0.0,0.8710921759996707
5.05263106533568e-7,3.1768058588804173,6.3536117177612805,4.4105452196482943e-13,0.0,0.9999968231941411,0.05052537673996827,0.10105075423592737,7.559908087479486e-10,0.0,0.8484238682681136
5.941133984965034e-7,3.2798418316700575,6.55968366334085,7.402970940725426e-13,0.0,0.9999967201581683,0.059410188157670595,0.11882037754439735,1.2290561440697698e-9,0.0,0.8217694330688758
6.985879746785247e-7,3.409879758355203,6.819759516711653,1.2514009883136829e-12,0.0,0.9999965901202417,0.0698573505213581,0.13971470304085926,1.998143037653319e-9,0.0,0.7904279444396396
8.214343584919427e-7,3.5766330463107963,7.153266092623728,2.133796944288521e-12,0.0,0.9999964233669537,0.08214158721096333,0.16428317767041317,3.2484864470178442e-9,0.0,0.7535752318701371
9.658832241158701e-7,3.7948367593186236,7.589673518640928,3.680765472953111e-12,0.0,0.9999962051632407,0.09658592542794776,0.19317185613712654,5.281230873702061e-9,0.0,0.7102422131536948
1.1357333583431054e-6,4.088107357594137,8.176214715194709,6.446407924482419e-12,0.0,0.9999959118926424,0.11357018773684371,0.22714038405964676,8.585959236233666e-9,0.0,0.6592894196175503
1.3354515629298988e-6,4.49671426328645,8.993428526584431,1.1528149152641074e-11,0.0,0.9999955032857367,0.13354097545565274,0.26708196486991065,1.3958604957997636e-8,0.0,0.5993770457158317
1.5702901247293773e-6,5.095609463350211,10.19121892672166,2.12377205265095e-11,0.0,0.9999949043905366,0.15702340504672488,0.3140468327865942,2.2693144025578046e-8,0.0,0.5289297394735369
1.8464249428955437e-6,6.04174267633502,12.083485352710978,4.093816322853711e-11,0.0,0.9999939582573236,0.1846349027389966,0.36926984237122434,3.6893230785341525e-8,0.0,0.4460952179965482
2.1711179456945044e-6,7.729276915916913,15.458553831918978,8.514465063287316e-11,0.0,0.999992270723084,0.2171014084004755,0.434202876779774,5.997882262825515e-8,0.0,0.34869565484092785
2.552908068239517e-6,11.509208422225043,23.018416844656194,2.0611798173835188e-10,0.0,0.9999884907915778,0.25527635395211257,0.510552805414003,9.750977762629361e-8,0.0,0.23417074312410677
3.0018358135755894e-6,27.080567483048632,54.16113496688572,7.884496791856087e-10,0.0,0.999972919432517,0.3001621818913801,0.6003245223073468,1.585245860245695e-7,0.0,0.09951313727668708
3.52970730273065e-6,177111.47735103648,354222.9547097785,7.705547183743204e-6,0.0,0.8228885226489635,0.33333316274384167,0.6666665809007823,2.554131022970872e-7,0.0,9.42273741099295e-10
4.150404757850476e-6,556006.5225693684,1.112013045170147e6,3.140994151572244e-5,0.0,0.44399347743063167,0.33333308211630003,0.6666665409079346,3.7667533712864555e-7,0.0,3.0042814186969407e-10
4.880251583654431e-6,785072.9463079707,1.570145892674407e6,5.846597151138924e-5,0.0,0.21492705369202936,0.3333329870892517,0.6666664934381676,5.192596666655755e-7,0.0,2.1291406335473823e-10
5.738441648302394e-6,908420.3648086847,1.8168407297070986e6,8.97294497418815e-5,0.0,0.09157963519131529,0.3333328753287254,0.666666437572326,6.869148771894596e-7,0.0,1.840713258038543e-10
6.747544053110695e-6,966413.9369326774,1.9328278739915174e6,0.0001261633974352867,0.0,0.03358606306732259,0.33333274390984124,0.6666663718683914,8.840487117056664e-7,0.0,1.7305565535997784e-10
7.934096665797492e-6,989674.1709971593,1.9793483421631563e6,0.00016883679781442895,0.0,0.010325829002840625,0.33333258938123705,0.6666662946061177,1.1158436455007009e-6,0.0,1.6899968520338787e-10
9.329304026284684e-6,997419.6740522383,1.9948393483234204e6,0.0002189435269312408,0.0,0.002580325947761697,0.33333240768211575,0.6666662037572112,1.3883929819200546e-6,0.0,1.6769107902946704e-10
1.0969857978923835e-5,999494.323985793,1.9989886482494248e6,0.00027783963111862475,0.0,0.0005056760142069239,0.3333321940370017,0.6666660969348271,1.708860826769819e-6,0.0,1.6734432315549156e-10
1.2898902612533087e-5,999925.1294620463,1.999850259271184e6,0.00034709161664915763,0.0,7.487053795374177e-5,0.3333319428308304,0.6666659713317774,2.0856701198258545e-6,0.0,1.67272425800377e-10
1.5167168884709225e-5,999991.5629743651,1.9999831263772587e6,0.0004285290881683552,0.0,8.437025634910889e-6,0.3333316474618282,0.6666658236472819,2.528723628857188e-6,0.0,1.6726106184542037e-10
1.7834308769319092e-5,999998.7987034315,1.9999975979311627e6,0.0005242998080659802,0.0,1.2012965685537225e-6,0.3333313001684723,0.6666656500006044,3.0496636633162717e-6,0.0,1.6725993556773326e-10
2.097046401323233e-5,999999.3235547836,1.9999986477464964e6,0.0006369294031337157,0.0,6.764452163965373e-7,0.33333089182607306,0.6666654458294047,3.6621772622229367e-6,0.0,1.6725998099411022e-10
2.4658110758226026e-5,999999.3470744524,1.9999986949182942e6,0.0007693892856014783,0.0,6.529255475173912e-7,0.3333304117077295,0.6666652057702332,4.382354777794141e-6,0.0,1.6725947759988857e-10
2.899422853882877e-5,999999.3474829913,1.9999986958911582e6,0.0009251759562558864,0.0,6.525170087590126e-7,0.3333298472034874,0.6666649235181119,5.229111140690025e-6,0.0,1.6726005236256526e-10
3.409285069746813e-5,999999.3472495822,1.9999986956075688e6,0.0011084043303986315,0.0,6.527504178288623e-7,0.3333291834904571,0.6666645916615968,6.2246806860284064e-6,0.0,1.6726018395760395e-10
4.008806328898464e-5,999999.3469653804,1.999998695254679e6,0.0013239179341210808,0.0,6.530346196020886e-7,0.33332840314539586,0.6666642014890661,7.3951982776527655e-6,0.0,1.6726041264718234e-10
4.713753134116724e-5,999999.3466310626,1.9999986948395432e6,0.001577418221124421,0.0,6.53368937397758e-7,0.3333274856898261,0.6666637427612814,8.771381632368629e-6,0.0,1.672601924143809e-10
5.542664520663104e-5,999999.3462379151,1.9999986943514522e6,0.0018756216207264846,0.0,6.537620849123016e-7,0.3333264070560732,0.666663203444405,1.0389332261827687e-5,0.0,1.6725998465244552e-10
6.517339604882424e-5,999999.3457754682,1.9999986937773675e6,0.00222643159069801,0.0,6.542245318819084e-7,0.33332513896066884,0.6666625693967028,1.229147536831952e-5,0.0,1.6726007303186324e-10
7.66341086800746e-5,999999.3452315424,1.9999986931022524e6,0.0026391678167545893,0.0,6.547684576752033e-7,0.3333236481693093,0.666661824001023,1.4527662407589451e-5,0.0,1.672600093502322e-10
9.011018251665018e-5,999999.3445916997,1.9999986923082115e6,0.0031248119340254892,0.0,6.554083002985323e-7,0.33332189563496323,0.6666609477338501,1.7156463926684147e-5,0.0,1.672599369932897e-10
0.0001059560179277616,999999.3438391723,1.9999986913746458e6,0.003696301082556331,0.0,6.561608277833031e-7,0.33331983548774097,0.6666599176602388,2.0246684760073523e-5,0.0,1.6726021567390562e-10
0.00012458833642950082,999999.3429537443,1.9999986902764018e6,0.004368913269913289,0.0,6.570462556254597e-7,0.3333174138517241,0.6666587068422305,2.3879138785429546e-5,0.0,1.672599861144244e-10
0.00014649713983072864,999999.3419120883,1.9999986889848383e6,0.005160661530816543,0.0,6.580879117201732e-7,0.33331456746007426,0.6666572836464058,2.8148726260107563e-5,0.0,1.672598782769658e-10
0.00017225859653987856,999999.3406872664,1.9999986874673548e6,0.006092821897440218,0.0,6.593127335197124e-7,0.33331122203536173,0.6666556109340495,3.316686332907166e-5,0.0,1.6725968270722268e-10
0.00020255019392306664,999999.3392450216,1.999998685680586e6,0.0071905422762955805,0.0,6.60754978398792e-7,0.3333072903971516,0.6666536451149445,3.9064320644124246e-5,0.0,1.6725968176532205e-10
0.00023816855519761583,999999.3375483359,1.999998683580238e6,0.008483566578134776,0.0,6.62451664079633e-7,0.3333026702534751,0.6666513350431059,4.599453615887233e-5,0.0,1.6726005553046848e-10
0.0002800503894183631,999999.3355507818,1.999998681108662e6,0.010007096885377948,0.0,6.644492182017459e-7,0.3332972416269096,0.6666486207298229,5.413747600775822e-5,0.0,1.6725980176617375e-10
0.0003292971255097152,999999.3332001618,1.9999986782031783e6,0.011802854059160326,0.0,6.667998382337004e-7,0.3332908638597122,0.6666454318462242,6.370412680356714e-5,0.0,1.6726009292866717e-10
0.0003872038781812557,999999.3304302845,1.9999986747809204e6,0.013920350264305853,0.0,6.695697154501801e-7,0.33328337213595477,0.6666416859843459,7.494171243945862e-5,0.0,1.6725990532103375e-10
0.00045529350748669476,999999.3271692904,1.9999986707570124e6,0.016418430637374238,0.0,6.728307095915653e-7,0.3332745734521625,0.6666372866424508,8.813973812728183e-5,0.0,1.6725941530230937e-10
0.0005353566677410725,999999.3233272751,1.999998666021692e6,0.019367142339328056,0.0,6.766727248530557e-7,0.33326424196207177,0.6666321208974061,0.00010363697326273983,0.0,1.6725945491634624e-10
0.0006294988990221888,999999.3188005767,1.9999986604511966e6,0.022850042769578704,0.0,6.811994233135721e-7,0.3332521136164169,0.6666260567245768,0.00012182949174662414,0.0,1.672597985948824e-10
0.0007401959996915645,999999.3134632917,1.9999986538935425e6,0.026966959418897242,0.0,6.865367082609097e-7,0.3332378800161902,0.6666189399244637,0.00014317989208618916,0.0,1.6725991495688056e-10
0.0008703591361485165,999999.3071667191,1.9999986461709582e6,0.0318375211119092,0.0,6.928332808575632e-7,0.33322118139907864,0.6666105906159099,0.00016822781775211717,0.0,1.6725936488690835e-10
0.0010234114021054528,999999.2997361623,1.999998637077809e6,0.03760547941866761,0.0,7.002638376940595e-7,0.3332015986857394,0.6666007992592345,0.00019760188776718447,0.0,1.672588737433242e-10
0.001203377840777589,999999.2909666605,1.9999986263772463e6,0.044443925448710064,0.0,7.090333394854653e-7,0.3331786445282389,0.6665893221804815,0.00023203312402046383,0.0,1.6725905705480652e-10
0.0014149912974345759,999999.2806065847,1.9999986137753841e6,0.052562216572737484,0.0,7.193934152827097e-7,0.3331517533313807,0.6665758765820471,0.00027236991931288483,0.0,1.6725933078875002e-10
0.0016638168860761292,999999.2683479637,1.9999985989100174e6,0.062214095598378184,0.0,7.316520362898871e-7,0.33312027026370217,0.6665601350482205,0.0003195945208185294,0.0,1.6725876656993946e-10
0.001956398343517065,999999.2538416428,1.9999985813919432e6,0.07370866352467298,0.0,7.461583572121455e-7,0.33308343934674806,0.6665417195897558,0.000374840896238372,0.0,1.67257684373541e-10
0.002300430119772917,999999.2366638127,1.9999985607511364e6,0.08742351428630449,0.0,7.633361873704558e-7,0.3330403908165838,0.6665201953246818,0.0004394136914760127,0.0,1.6725845930704378e-10
0.0027049597304631343,999999.2162857715,1.9999985363936878e6,0.10382214128343083,0.0,7.837142285138654e-7,0.33299012810447465,0.666495063968625,0.0005148077596427061,0.0,1.6725757866382918e-10
0.003180625692794119,999999.1920828277,1.9999985076409006e6,0.12347524696543367,0.0,8.079171722741307e-7,0.33293151499660334,0.6664657574146358,0.0006027274215034264,0.0,1.6725747208675562e-10
0.0037399373024787977,999999.1633010998,1.999998473690612e6,0.14708842778557193,0.0,8.366989001640235e-7,0.33286326382528864,0.6664316318290633,0.0007051041783909406,0.0,1.6725713706828432e-10
0.004397603609302721,999999.1290179696,1.9999984335740304e6,0.17553809204538687,0.0,8.709820303876015e-7,0.33278392593713624,0.666391962884949,0.0008241110106583787,0.0,1.6725643157793069e-10
0.005170920242896761,999999.0881024951,1.9999983861197059e6,0.2099147132249832,0.0,9.118975049515754e-7,0.33269188619194284,0.6663459430123791,0.000962170628422528,0.0,1.672555353764149e-10
0.006080224261649421,999999.0392073237,1.9999983299941963e6,0.2515795540895202,0.0,9.607926763077757e-7,0.3325853639013366,0.6662926818670903,0.0011219540643178428,0.0,1.6725528731095785e-10
0.007149428986597577,999998.9806406857,1.9999982635180547e6,0.30223667751592626,0.0,1.0193593142915347e-6,0.33246242341376203,0.6662312116232966,0.0013063647956864147,0.0,1.6725492735583658e-10
0.008406652885618326,999998.9103458846,1.999998184710239e6,0.36401846629497064,0.0,1.0896541153826433e-6,0.3323209984875608,0.6661604991601969,0.001518502184988898,0.0,1.6725337000783602e-10
0.009884959046625588,999998.8258162235,1.9999980912278297e6,0.4395953557709972,0.0,1.1741837765422147e-6,0.33215893563792137,0.6660794677353449,0.0017615964594811934,0.0,1.6725261453576223e-10
0.011623224686798517,999998.7239510795,1.999997980203792e6,0.5323016328714519,0.0,1.2760489204177716e-6,0.33197406265650664,0.6659870312446734,0.0020389059315689953,0.0,1.6725096394637484e-10
0.013667163564620074,999998.6009774135,1.999997848248369e6,0.6462935424157069,0.0,1.3990225865567751e-6,0.3317642893360811,0.6658821445844999,0.002353565912169461,0.0,1.672495952495523e-10
0.016070528182616384,999998.4523341386,1.9999976913811916e6,0.7867129030559107,0.0,1.5476658614677063e-6,0.3315277476762071,0.6657638737545928,0.0027083784019522545,0.0,1.6724788828165194e-10
0.018896523396912116,999998.2724209791,1.9999975047250625e6,0.9598831240406399,0.0,1.7275790208381991e-6,0.33126297809189154,0.6656314889621552,0.0031055327787063787,0.0,1.6724690339239845e-10
0.02221946860939524,999998.0545259945,1.999997282531279e6,1.1734792935198033,0.0,1.9454740055602215e-6,0.3309691654929875,0.6654845826630204,0.003546251676747661,0.0,1.6724449299412858e-10
0.026126752255633268,999997.790700831,1.9999970181028731e6,1.4367012144558993,0.0,2.209299169053658e-6,0.3306464238025057,0.6653232118178778,0.004030364212374216,0.0,1.6724224175673763e-10
0.03072112998861759,999997.4716466868,1.9999967036561407e6,1.7603627531841517,0.0,2.5283533132691716e-6,0.33029611820682386,0.6651480590199755,0.004555822605960465,0.0,1.6724019218095076e-10
0.0361234269970943,999997.0866026182,1.9999963300860955e6,2.156880844009072,0.0,2.9133973817874192e-6,0.32992120055893487,0.6649606001961087,0.00511819907771873,0.0,1.6723764820897324e-10
0.04247571552536903,999996.623584484,1.9999958872615432e6,2.6400925419516685,0.0,3.3764155160653786e-6,0.32952651446440895,0.6647632571487012,0.005710228219654232,0.0,1.6723560557208028e-10
0.049945051158551405,999996.0693802534,1.9999953636019707e6,3.2248414494704565,0.0,3.930619746572717e-6,0.32911900420704415,0.6645595020202213,0.006321493605501874,0.0,1.6723262444978682e-10
0.05872786613189477,999995.4101877592,1.9999947466852567e6,3.9263097508457405,0.0,4.589812240829438e-6,0.3287077401768043,0.6643538700051288,0.0069383896508372015,0.0,1.6722962424553511e-10
0.06905513520162332,999994.6320836095,1.9999940232490902e6,4.759081874961555,0.0,5.367916390497385e-6,0.3283036609744319,0.6641518304037716,0.007544508454569027,0.0,1.6722753737319351e-10
0.0811984499318401,999993.721604175,1.9999931793162443e6,5.7361079012859175,0.0,6.278395824899086e-6,0.327918942046317,0.6639594709396984,0.008121586846759902,0.0,1.6722467507945815e-10
0.09547716114208066,999992.6664490011,1.999992200650971e6,6.867752986401804,0.0,7.33355099891142e-6,0.3275659471695856,0.6637829735013846,0.008651079161807487,0.0,1.6722237830557596e-10
0.11226677735108136,999991.4557503903,1.999991072850038e6,8.161349257353038,0.0,8.544249609721e-6,0.32725581419539346,0.6636279070142956,0.009116278623090309,0.0,1.6722065225571736e-10
0.13200884008314168,999990.0798063608,1.999989781244662e6,9.621631939700208,0.0,9.920193639212371e-6,0.32699686569805264,0.663498432765581,0.009504701369147401,0.0,1.6721899906424476e-10
0.15522253574270478,999988.5290587106,1.9999883104698588e6,11.252352430935085,0.0,1.1470941289393188e-5,0.32679318585487,0.6633965928439257,0.009810221133986833,0.0,1.6721740311864686e-10
0.18251834943190423,999986.7926204136,1.999986644150211e6,13.058909388830692,0.0,1.3207379586432921e-5,0.3266437980182292,0.663321898925527,0.010034302889027139,0.0,1.6721672657649123e-10
0.2146141197858406,999984.8564419922,1.9999847641330678e6,15.051249084946983,0.0,1.5143558007801872e-5,0.3265428246624334,0.6632714122476352,0.010185762922715235,0.0,1.672162304455771e-10
0.2523539170434766,999982.702538029,1.999982650785965e6,17.24570990586913,0.0,1.7297461970988692e-5,0.3264807552990686,0.6632403775659599,0.01027886696775554,0.0,1.672159632981618e-10
0.29673024081888666,999980.3097764124,1.9999802839866362e6,19.66443381561133,0.0,1.9690223587609523e-5,0.3264465351107127,0.6632232674717686,0.010330197250302604,0.0,1.6721612289272159e-10
0.3489101213406774,999977.6569324082,1.9999776455964365e6,22.331731619555843,0.0,2.2343067591745758e-5,0.3264298049041027,0.6632149023684525,0.010355292560228997,0.0,1.6721573431466297e-10
0.41026581058271905,999974.7273580967,1.999974722852529e6,25.26813633500393,0.0,2.5272641903217874e-5,0.32642252510323194,0.6632112624680117,0.01036621226154032,0.0,1.6721602921765388e-10
0.4824108704165374,999971.5142037029,1.999971512362434e6,28.48395502833249,0.0,2.8485796297106347e-5,0.3264195284962701,0.6632097641645279,0.010370707171986005,0.0,1.6721597370650265e-10
0.5672426068491978,999968.0249184838,1.9999680238925898e6,31.974055622550093,0.0,3.19750815162001e-5,0.3264181006185326,0.6632090502256589,0.01037284898859235,0.0,1.672161437094033e-10
0.6669919663030115,999964.2846972184,1.9999642838867123e6,35.714492275900106,0.0,3.5715302781569314e-5,0.3264171029164224,0.6632085513746027,0.01037434554175836,0.0,1.67216525348568e-10
0.7842822061337682,999960.3387264499,1.9999603379559913e6,39.66050309200989,0.0,3.9661273550151144e-5,0.3264161698717568,0.6632080848522698,0.010375745108756796,0.0,1.6721660688057138e-10
0.9221978823334323,999956.2538626791,1.99995625312172e6,43.74539636110949,0.0,4.3746137320832545e-5,0.326415223744387,0.6632076117885852,0.010377164299810898,0.0,1.6721695729471353e-10
1.084365968689611,999952.1186499373,1.9999521179649762e6,47.88066510185669,0.0,4.788135006272842e-5,0.3264142682391419,0.6632071340359628,0.010378597557678277,0.0,1.6721707872535685e-10
1.2750512407130128,999948.0409823728,1.9999480403704264e6,51.958405681248195,0.0,5.1959017627223325e-5,0.326413326199789,0.6632066630162858,0.010380010616708018,0.0,1.6721712382816722e-10
1.4992684327860473,999944.1422879705,1.9999441417841625e6,55.85720822152233,0.0,5.585771202942791e-5,0.3264124255042022,0.6632062126684918,0.010381361660087544,0.0,1.6721843527911506e-10
1.762914118095948,999940.547391389,1.9999405469647977e6,59.45218202032511,0.0,5.9452608610954805e-5,0.32641159499641975,0.6632057974146008,0.010382607421761305,0.0,1.6721815945808238e-10
