t (s),FA (mol/s/mol site),FB (mol/s/mol site),FC (mol/s/mol site),FP (mol/s/mol site),XA,θA,θB,θC,θP,θV
1.0000000000000001e-7,0.27786695719956434,0.5557339143992606,6.3172488363986094e-15,0.0,0.9999972213304281,0.00999969176589042,0.019999386095000404,1.224272277350492e-10,1.2203961714721076e-9,0.9700009207962859
1.1758495540521568e-7,0.2793875008197734,0.5587750016397307,1.0250011854700447e-14,0.0,0.9999972061249919,0.01175818033379039,0.02351636424134081,1.990391460352215e-10,1.6873604464257182e-9,0.9647254535384692
1.382622173764656e-7,0.28119674134282363,0.5623934826859048,1.6722687109971693e-14,0.0,0.9999971880325866,0.013825898145237749,0.027651801280063747,3.235922919107498e-10,2.3329979834290927e-9,0.9585222979181083
1.6257556664437941e-7,0.2833537778287358,0.5667075556578339,2.738141941039897e-14,0.0,0.9999971664622217,0.016257222944045722,0.032514452865525,5.260864911547507e-10,3.2256735379924704e-9,0.9512283204386692
1.9116440753857023e-7,0.28593140131506967,0.5718628026306517,4.4928835241859414e-14,0.0,0.9999971406859868,0.019116094739341123,0.0382321992537961,8.552942558011224e-10,4.4599097990461335e-9,0.9426517006916587
2.2478058335487253e-7,0.2890182233574215,0.5780364467155813,7.732707162232839e-14,0.0,0.9999971098177665,0.022477697307431314,0.044955408338162195,1.3905076140445785e-9,6.166395977669948e-9,0.932566886797503
2.6430814869741053e-7,0.29273335997773015,0.5854667199565722,1.474988917480479e-13,0.0,0.9999970726664001,0.0264304353661859,0.05286089004465962,2.260635967032774e-9,8.52582592318716e-9,0.9207086638026925
3.107866187782013e-7,0.2972492612667143,0.594498522535042,2.4452280191461485e-13,0.0,0.9999970275073874,0.031078259444121053,0.06215654613956347,3.675258836650934e-9,1.1788031259298875e-8,0.9067651789530254
3.654383070957256e-7,0.30276501816031093,0.6055300363229271,3.8839655373758593e-13,0.0,0.9999969723498184,0.03654339953601282,0.07308683764399176,5.975097115969987e-9,1.6298434493721824e-8,0.8903697405464638
4.297004704320841e-7,0.3095381907624075,0.6190763815281041,6.14563620071262e-13,0.0,0.9999969046180924,0.04296957943888288,0.085939213661094,9.714079475367798e-9,2.2534624376662762e-8,0.8710911746513192
5.05263106533568e-7,0.3179047926708067,0.6358095853463392,9.8500092426244e-13,0.0,0.9999968209520733,0.050525796274186324,0.10105167065498186,1.579275817197035e-8,3.115692551227246e-8,0.8484224861211481
5.941133984965034e-7,0.32830695660426995,0.6566139132154161,1.6068419170995024e-12,0.0,0.9999967169304339,0.05941076455156796,0.11882164093498028,2.567521048247671e-8,4.3078316933239214e-8,0.8217675257599243
6.985879746785247e-7,0.3413315109994977,0.6826630220091565,2.6634880626574508e-12,0.0,0.99999658668489,0.06985814158380128,0.13971644403147576,4.174166733030057e-8,5.9561102921088766e-8,0.7904253130819526
8.214343584919427e-7,0.35776416212714895,0.7155283242695619,4.466353812973496e-12,0.0,0.9999964223583787,0.08214267157382678,0.16428557571059862,6.786180112477441e-8,8.235057197698666e-8,0.7535716025032013
9.658832241158701e-7,0.3797161346639187,0.7594322693523088,8.240131146591792e-12,0.0,0.9999962028386534,0.0965874086366633,0.193175155319659,1.1032674244321889e-7,1.1385979499776876e-7,0.7102372118571403
1.1357333583431054e-6,0.4103454282706677,0.8206908565806407,1.4716907547707157e-11,0.0,0.9999958965457173,0.11357221190602905,0.2271449180266929,1.7936436593117092e-7,1.5742513444374328e-7,0.6592825332777776
1.3354515629298988e-6,0.4527891143733606,0.9055782288096479,2.5676564094039875e-11,0.0,0.9999954721088563,0.13354373198407124,0.2670881908897012,2.916025567434362e-7,2.1765950097239554e-7,0.5993675678641698
1.5702901247293773e-6,0.5120824877721813,1.0241649756468334,4.5361296541900047e-11,0.0,0.9999948791751223,0.15702715047696858,0.3140553769095794,4.740740767507202e-7,3.009407827553791e-7,0.5289166975985925
1.8464249428955437e-6,0.6064952429091388,1.2129904860018037,8.939032782619552e-11,0.0,0.999993935047571,0.1846399705572611,0.3692815440162231,7.707274086934818e-7,4.160871461327423e-7,0.446077298611961
2.1711179456945044e-6,0.8038514712758869,1.6077029429321088,2.0187626259470314e-10,0.0,0.9999919614852872,0.21710820974125503,0.43421882307590143,1.2530119613132444e-6,5.752907151499816e-7,0.3486711388801671
2.552908068239517e-6,1.1458391707602595,2.291678342280987,4.268888741201096e-10,0.0,0.9999885416082924,0.25528551862746107,0.5105746651563692,2.037084824348248e-6,7.954083116076577e-7,0.2341369837230338
3.0018358135755894e-6,3.1358671711660717,6.271734345635494,1.9977519254550505e-9,0.0,0.9999686413282883,0.3001739270827898,0.6003533654397465,3.3117826748991084e-6,1.0997457468738773e-6,0.09946829594904195
3.52970730273065e-6,17726.505789866493,35453.01160520807,1.610894413443464e-5,0.0,0.822734942101335,0.33332825340797045,0.6666648743135498,5.335882123020532e-6,1.5158129207094094e-6,2.058343600043486e-8
4.150404757850476e-6,55608.35195182949,111216.70400467025,6.561604867029128e-5,0.0,0.4439164804817051,0.3333260664343679,0.6666640434636972,7.868985011385723e-6,2.020830309588969e-6,2.866138871470051e-10
4.880251583654431e-6,78510.48555322753,157020.97129030406,0.00012212148211304116,0.0,0.2148951444677248,0.33332348698771863,0.6666630506339872,1.0847470549541343e-5,2.614650399656779e-6,2.5734493975603336e-10
5.738441648302394e-6,90842.0510657342,181684.10240868706,0.0001874113932571177,0.0,0.09157948934265817,0.3333204540169701,0.6666618832377951,1.434963521213351e-5,3.3128874295032004e-6,2.2259321096681096e-10
6.747544053110695e-6,96640.47405655986,193280.94849771977,0.00026349428019110965,0.0,0.033595259434401475,0.3333168877877218,0.6666605105674874,1.8467534749703886e-5,4.133900753568079e-6,2.092875708467715e-10
7.934096665797492e-6,98964.79587426233,197929.59225814277,0.00035259866669348224,0.0,0.010352041257376682,0.3333126945695105,0.6666588965485247,2.3309400255178922e-5,5.099277323876234e-6,2.0438570361389774e-10
9.329304026284684e-6,99739.9756835882,199479.95202324947,0.0004572130705762176,0.0,0.00260024316411811,0.3333077641602286,0.6666569987602878,2.9002477762726473e-5,6.234398922423498e-6,2.0279834666496292e-10
1.0969857978923835e-5,99947.67579597999,199895.3524200394,0.0005801622885872099,0.0,0.0005232420402001559,0.3333019669971736,0.6666547673260953,3.5696365342565315e-5,7.569109011399902e-6,2.0237710940368387e-10
1.2898902612533087e-5,99990.85584348491,199981.71271723587,0.0007247080559267685,0.0,9.144156515095148e-5,0.3332951507607358,0.6666521436058357,4.356693447011359e-5,9.138496669387346e-6,2.0228901714792417e-10
1.5167168884709225e-5,99997.66060641718,199995.32248081407,0.0008946575426367824,0.0,2.3393935828230905e-5,0.33328713638333424,0.6666490586588195,5.2820937438074147e-5,1.0983818134479353e-5,2.0227363839062876e-10
1.7834308769319092e-5,99998.60070829051,199997.2029640533,0.0010944767071993297,0.0,1.3992917094890478e-5,0.3332777133603364,0.6666454314372322,6.370142010314779e-5,1.315358005766712e-5,2.0227057685610948e-10
2.097046401323233e-5,99998.60439194938,199997.21065998258,0.0013294127535101166,0.0,1.3956080506249968e-5,0.33326663424180786,0.6666411666634302,7.649407972124588e-5,1.570481277218943e-5,2.0226855574909997e-10
2.4658110758226026e-5,99998.64608059809,199997.2944236375,0.0016056329770712525,0.0,1.3539194019113188e-5,0.33325360816319116,0.6666361523362412,9.153473148895385e-5,1.870456681205806e-5,2.022666429488053e-10
2.899422853882877e-5,99998.63189544178,199997.2665075682,0.0019303859970380701,0.0,1.3681045582247808e-5,0.3332382932488472,0.6666302568020042,0.00010921807519775584,2.223167168789544e-5,2.022630584951079e-10
3.409285069746813e-5,99998.63700339975,199997.27725752827,0.0023121908405908907,0.0,1.3629966002515204e-5,0.3332202876942708,0.6666233253150681,0.00013000798570807537,2.637880269230667e-5,2.0226073500919468e-10
4.008806328898464e-5,99998.6406332382,199997.28514505454,0.002761058684698931,0.0,1.359366761807812e-5,0.33319911930017615,0.6666151759997291,0.000154449588413347,3.1254909424161665e-5,2.0225720452843668e-10
4.713753134116724e-5,99998.6382043687,199997.28102542533,0.003288753005668658,0.0,1.3617956313022317e-5,0.33317423319385664,0.6666055951107096,0.00018318342420053292,3.6988068980303734e-5,2.0225292071012792e-10
5.542664520663104e-5,99998.63467552704,199997.27483544496,0.003909094599309941,0.0,1.3653244729655567e-5,0.33314497742962934,0.6665943314721544,0.000216962058387173,4.372883758131893e-5,2.0224775608597423e-10
6.517339604882424e-5,99998.63664407731,199997.27979254938,0.004638319049966746,0.0,1.3633559226983172e-5,0.3331105861100006,0.6665810899552215,0.00025666954551301384,5.165418702269914e-5,2.022422635042159e-10
7.66341086800746e-5,99998.6368258726,199997.28135512272,0.005495495415025425,0.0,1.3631741274111597e-5,0.33307015961172315,0.6665655238314802,0.0003033442275047345,6.097212705644035e-5,2.0223552065439356e-10
9.011018251665018e-5,99998.63646321443,199997.28203909853,0.006503016268899043,0.0,1.3635367855785452e-5,0.33302264143541377,0.6665472258131656,0.0003582054172679357,7.192713192524803e-5,2.0222738066099418e-10
0.0001059560179277616,99998.63551932396,199997.28180769627,0.007687170785474751,0.0,1.3644806760443329e-5,0.3329667911233787,0.6665257175612783,0.0004226846039720881,8.480650915311282e-5,2.0221779959350098e-10
0.00012458833642950082,99998.63414842359,199997.2810125248,0.00907881427318711,0.0,1.3658515764097823e-5,0.33290115260712033,0.6665004374086159,0.0004984619103320119,9.9947871725555e-5,2.0220618114749535e-10
0.00014649713983072864,99998.63291432991,199997.28083185956,0.010714149482728152,0.0,1.3670856700981338e-5,0.3328240172537471,0.6664707260065936,0.0005875086360662582,0.00011774790140001416,2.0219299337305516e-10
0.00017225859653987856,99998.63233129474,199997.2823535988,0.012635637054505816,0.0,1.3676687052738279e-5,0.33273338078053044,0.6664358095624277,0.0006921368333852945,0.00013867262147861502,2.0217805481539432e-10
0.00020255019392306664,99998.63107855518,199997.2830058768,0.01489305481650281,0.0,1.368921444824811e-5,0.3326268930931702,0.6663947802843688,0.0008150569875418234,0.00016326943275914198,2.0216003564633815e-10
0.00023816855519761583,99998.62959492784,199997.2837479443,0.017544727685618083,0.0,1.3704050721569105e-5,0.3325017999996802,0.6663465736058726,0.0009594449863457212,0.00019218120596273331,2.021387593171154e-10
0.0002800503894183631,99998.62783796508,199997.2845904775,0.02065895221715691,0.0,1.3721620349266272e-5,0.33235487563443267,0.6662899417040394,0.0011290196897440579,0.00022616276966986115,2.0211397933436216e-10
0.0003292971255097152,99998.62575842987,199997.28554683868,0.02431564224251601,0.0,1.3742415701373245e-5,0.3321823443073265,0.6662234227689471,0.0013281325372061057,0.00026610018443570707,2.0208458918844624e-10
0.0003872038781812557,99998.62330022432,199997.28663558865,0.028608223165975104,0.0,1.3766997756792243e-5,0.331979790419518,0.6661453054332428,0.001561870695142697,0.0003130332500463674,2.0205016696209221e-10
0.00045529350748669476,99998.62040127652,199997.2878853038,0.033645803541446584,0.0,1.3795987234832552e-5,0.3317420550190664,0.6660535877200803,0.0018361753026093876,0.0003681817562342991,2.0200964230381036e-10
0.0005353566677410725,99998.6169962629,199997.28934349457,0.03955565196775589,0.0,1.3830037371015402e-5,0.3314631175683785,0.6659459298323004,0.0021579763420156587,0.00043297605534322437,2.0196230045331845e-10
0.0006294988990221888,99998.61302268317,199997.29109269183,0.04648600474458644,0.0,1.3869773168306843e-5,0.33113596157910075,0.6658196000907814,0.0025353455201743086,0.0005090926080369778,2.0190651819733396e-10
0.0007401959996915645,99998.60843287053,199997.29327889666,0.05460922404931892,0.0,1.3915671294717491e-5,0.33075242298573787,0.6656714133485372,0.0029776682356265844,0.0005984952282567833,2.0184151756658802e-10
0.0008703591361485165,99998.60300685377,199997.29574233035,0.06412530899612841,0.0,1.396993146246528e-5,0.33030302083673,0.6654976613853224,0.0034958347646168427,0.0007034828115656736,2.0176505919570348e-10
0.0010234114021054528,99998.59665263054,199997.2986234031,0.07526579101697058,0.0,1.40334736946357e-5,0.3297767687019062,0.6652940342432102,0.004102452355808669,0.0008267444973993,2.0167562455111754e-10
0.001203377840777589,99998.58921824145,199997.3019926965,0.08829788979310789,0.0,1.410781758554025e-5,0.32916097156487,0.6650555336884091,0.004812071541266681,0.00097142300388342,2.0157080648716685e-10
0.0014149912974345759,99998.58052788237,199997.3059295093,0.1035289635304016,0.0,1.4194721176391534e-5,0.3284410066079091,0.6647763774173289,0.005641428454016558,0.0011411873192972112,2.0144827125867515e-10
0.0016638168860761292,99998.57038018333,199997.3105248844,0.12131107079265596,0.0,1.4296198166813268e-5,0.3276000952675359,0.6644498957103997,0.006609693224808913,0.0013403155959502467,2.0130517110021617e-10
0.001956398343517065,99998.55854572069,199997.31588302428,0.1420454574346991,0.0,1.4414542793134144e-5,0.3266190742714572,0.6640684220233695,0.007738714299922404,0.0015737892041128917,2.0113804090164666e-10
0.002300430119772917,99998.54476483578,199997.3221228274,0.16618666897173812,0.0,1.4552351642188599e-5,0.3254761782710321,0.6636231803910275,0.009053242362862778,0.0018473987741343225,2.0094334204391606e-10
0.0027049597304631343,99998.52874566433,199997.32937865387,0.19424579237998144,0.0,1.4712543356804053e-5,0.32414685521899333,0.6631041750615684,0.010581106856560657,0.0021678626621613566,2.007162717282407e-10
0.003180625692794119,99998.51015941727,199997.3377941437,0.22679230867870576,0.0,1.489840582735713e-5,0.3226036374683159,0.6625000873468841,0.0123533168009325,0.0025429581834150276,2.0045243936950286e-10
0.0037399373024787977,99998.48864536399,199997.34753143808,0.2644535158255479,0.0,1.5113546360107089e-5,0.3208161117656682,0.661798192937168,0.014404029388675433,0.002981665708341775,2.0014650917513088e-10
0.004397603609302721,99998.46381257425,199997.35876903805,0.3079103630050843,0.0,1.5361874257519004e-5,0.31875104002457316,0.6609843126052226,0.016770323189599354,0.0034943239808121786,1.9979263729541508e-10
0.005170920242896761,99998.43524479082,199997.37170028716,0.3578889625751717,0.0,1.5647552091824224e-5,0.3163726636682737,0.6600428026218728,0.0194917359331862,0.004092797577283046,1.993842252759337e-10
0.006080224261649421,99998.40250975521,199997.38653105337,0.4151449509025109,0.0,1.5974902447951633e-5,0.31364331513410315,0.6589566210245528,0.022609412923856872,0.0047906507185729716,1.989142366445873e-10
0.007149428986597577,99998.36516360103,199997.40345444728,0.48043832973392303,0.0,1.6348363989782122e-5,0.3105244444268044,0.6577074964874617,0.026164736797805517,0.0056033220895530395,1.9837532311273165e-10
0.008406652885618326,99998.32278699454,199997.42267102795,0.5544961733776953,0.0,1.6772130054659717e-5,0.3069781577601365,0.6562762400594523,0.030197297253033863,0.006548304729617277,1.977600904215504e-10
0.009884959046625588,99998.27501557113,199997.44438494666,0.6379651862009498,0.0,1.7249844288802496e-5,0.3029692102823165,0.6546431502546486,0.03474230778964349,0.007645331476330269,1.970611625268237e-10
0.011623224686798517,99998.22156610727,199997.46875932204,0.7313426101772487,0.0,1.7784338927351317e-5,0.298467961749232,0.6527886653030692,0.0398268430355935,0.00891652971583355,1.9627165344371367e-10
0.013667163564620074,99998.16227844016,199997.49587852444,0.8348889805171869,0.0,1.8377215598441854e-5,0.2934540975855832,0.6506942282126779,0.04546508792832551,0.010386586078028823,1.9538453494005736e-10
0.016070528182616384,99998.0972340958,199997.52585181262,0.9485302172338416,0.0,1.9027659042131218e-5,0.28792080823641764,0.6483432378247554,0.051653007992064084,0.01208294575236685,1.9439598195059027e-10
0.018896523396912116,99998.02675542912,199997.5586370671,1.0717383833590006,0.0,1.973244570879773e-5,0.28188002173583326,0.6457221649409014,0.05836185449148096,0.014035958638482058,1.9330232033099026e-10
0.02221946860939524,99997.95151839181,199997.59407395285,1.2033920254742247,0.0,2.0484816081883794e-5,0.27536835381108127,0.6428219650566235,0.06553056051027858,0.016279120429913935,1.9210273302650016e-10
0.026126752255633268,99997.87267994696,199997.63203107275,1.3417004891580802,0.0,2.1273200530441683e-5,0.2684503523381323,0.6396384420014916,0.07306162189148349,0.018849583578092667,1.9079997998217024e-10
0.03072112998861759,99997.79179725533,199997.6720101445,1.484049512120299,0.0,2.2082027446856944e-5,0.2612253060708763,0.6361735746761906,0.08081268493674265,0.02178843412679167,1.8939881607504816e-10
0.0361234269970943,99997.71106983762,199997.71370083277,1.6270435102209557,0.0,2.2889301623807423e-5,0.25382490040093103,0.6324342432115785,0.08859885575787832,0.025142000441704372,1.879078490030217e-10
0.04247571552536903,99997.6330646247,199997.7563905898,1.7665004435348408,0.0,2.366935375308632e-5,0.24641365498506404,0.6284311753791904,0.09619241348312109,0.028962755966288427,1.863360611642495e-10
0.049945051158551405,99997.56087338632,199997.7996601401,1.897710533380371,0.0,2.4391266136847278e-5,0.23917654000238014,0.6241747506269641,0.10333690546147681,0.03331180372448374,1.8469510643104314e-10
0.05872786613189477,99997.4976720607,199997.84278389587,2.0156639932918416,0.0,2.5023279393160403e-5,0.23230906536271556,0.6196706163014896,0.10975953996829446,0.03826077818450701,1.8299340515115503e-10
0.06905513520162332,99997.44663648002,199997.88553286798,2.1157257228022366,0.0,2.553363519994245e-5,0.22598597625021577,0.614909943252803,0.11520793168683924,0.04389614862890809,1.8123388900725956e-10
0.0811984499318401,99997.41049338102,199997.92757820885,2.1938626830426404,0.0,2.589506618994042e-5,0.22035096684495806,0.609865277920412,0.11946247542666143,0.05032127962855534,1.7941319263581335e-10
0.09547716114208066,99997.39117113559,199997.96911758656,2.247573111652566,0.0,2.6088288644088298e-5,0.21547409574345155,0.6044774607533424,0.12238694785338726,0.05766149547230463,1.775141422744042e-10
0.11226677735108136,99997.38961908696,199998.01070895194,2.276003993200464,0.0,2.6103809130512134e-5,0.2113454871113367,0.598653782887535,0.12393490159994067,0.06606582822568147,1.7550613740091592e-10
0.13200884008314168,99997.40570946397,199998.05316757975,2.280013862528865,0.0,2.594290536034327e-5,0.2078722842253925,0.5922667950873317,0.12415308410069326,0.0757078364132357,1.7334683688474684e-10
0.15522253574270478,99997.4383544901,199998.0977205973,2.2620901346675915,0.0,2.561645509893684e-5,0.20488155720966075,0.5851559328743058,0.12317693766540001,0.08678557207965437,1.709791058734922e-10
0.18251834943190423,99997.48597646359,199998.1457391908,2.2254814115863946,0.0,2.514023536417942e-5,0.2021594336177812,0.5771399390239098,0.12118335174971645,0.09951727544025249,1.6834003635501915e-10
0.2146141197858406,99997.54700248389,199998.19851231025,2.1733510045732816,0.0,2.452997516111388e-5,0.1994905252453008,0.568029480618077,0.11834457134686131,0.1141354226243957,1.6536522151611166e-10
0.2523539170434766,99997.62012494961,199998.2572271858,2.108404586229442,0.0,2.3798750504039345e-5,0.19667645995117367,0.5576349300141527,0.11480792322877091,0.1308806866439121,1.6199067087718788e-10
0.29673024081888666,99997.70462889041,199998.32282381912,2.0323445263418733,0.0,2.2953711096007634e-5,0.19356362159107945,0.5457780055173562,0.1106661038270889,0.14999226890631487,1.5816056797568478e-10
0.3489101213406774,99997.8003195361,199998.39587657503,1.945932815691696,0.0,2.1996804639157208e-5,0.19004515919774956,0.5322975602228068,0.1059606061224453,0.1716966743031718,1.5382653484330433e-10
0.41026581058271905,99997.90711549943,199998.47663691003,1.8496181562187224,0.0,2.0928845005790953e-5,0.18603872886294665,0.5170514484155976,0.10071586620324609,0.1961939563692596,1.4895015776339449e-10
0.4824108704165374,99998.0250266123,199998.56505059116,1.7435489603285452,0.0,1.974973387705581e-5,0.18149203246933268,0.4999310641496328,0.09493996978321956,0.2236369334543103,1.435047081166374e-10
