t (s),FA (mol/s),FB (mol/s),FC (mol/s),FP (mol/s),XA,θA,θB,θC,θP,θV
1.0000000000000001e-7,2.778654778142771,5.557309556285547,2.990967951573889e-15,0.0,0.9999972213452218,0.009999674854042018,0.01999934971394461,5.860578427393554e-12,0.0,0.9700009754261528
1.1758495540521568e-7,2.79384848794727,5.587696975894547,4.888982752480718e-15,0.0,0.9999972061515121,0.01175815698008858,0.023516313969705136,9.527979756738087e-12,0.0,0.9647255290406784
1.382622173764656e-7,2.811928050175782,5.62385610035157,7.998407668137836e-15,0.0,0.9999971880719498,0.013825865902342725,0.027651731820175766,1.549031808978226e-11,0.0,0.9585224022619913
1.6257556664437941e-7,2.8334880944285628,5.6669761888571415,1.31062975541206e-14,0.0,0.9999971665119056,0.016257178439110266,0.032514356903404214,2.5183676417131954e-11,0.0,0.9512284646323019
1.9116440753857023e-7,2.8592667258528577,5.7185334517057385,2.1498244308606173e-14,0.0,0.9999971407332742,0.019116033326044158,0.0382320666930311,4.094277724677285e-11,0.0,0.9426518999399819
2.2478058335487253e-7,2.890184979343532,5.780369958687099,3.53296107937345e-14,0.0,0.9999971098150207,0.02247761259058348,0.04495522524773028,6.656331157043961e-11,0.0,0.9325671620951229
2.6430814869741053e-7,2.9274053841623027,5.854810768324658,5.819194239613292e-14,0.0,0.9999970725946158,0.026430318560100422,0.05286063722841701,1.0821614309674585e-10,0.0,0.9207090441032664
3.107866187782013e-7,2.972418597991571,5.944837195983242,9.60348732111913e-14,0.0,0.999997027581402,0.031078098481335505,0.062156197138604596,1.75933582486069e-10,0.0,0.9067657042041263
3.654383070957256e-7,3.0271501308628435,6.05430026172585,1.5900007938912062e-13,0.0,0.9999969728498691,0.0365431778587751,0.07308635600357592,2.860256883237803e-10,0.0,0.8903704658516233
4.297004704320841e-7,3.0941405456449043,6.188281091290076,2.6422988603505456e-13,0.0,0.9999969058594543,0.042969274356770726,0.08593854917855004,4.650085698314272e-10,0.0,0.8710921759996707
5.05263106533568e-7,3.1768058588804173,6.3536117177612805,4.4105452196482943e-13,0.0,0.9999968231941411,0.05052537673996827,0.10105075423592737,7.559908087479486e-10,0.0,0.8484238682681136
5.941133984965034e-7,3.2798418316700575,6.55968366334085,7.402970940725426e-13,0.0,0.9999967201581683,0.059410188157670595,0.11882037754439735,1.2290561440697698e-9,0.0,0.8217694330688758
6.985879746785247e-7,3.409879758355203,6.819759516711653,1.2514009883136829e-12,0.0,0.9999965901202417,0.0698573505213581,0.13971470304085926,1.998143037653319e-9,0.0,0.7904279444396396
8.214343584919427e-7,3.5766330463107963,7.153266092623728,2.133796944288521e-12,0.0,0.9999964233669537,0.08214158721096333,0.16428317767041317,3.2484864470178442e-9,0.0,0.7535752318701371
9.658832241158701e-7,3.7948367593186236,7.589673518640928,3.680765472953111e-12,0.0,0.9999962051632407,0.09658592542794776,0.19317185613712654,5.281230873702061e-9,0.0,0.7102422131536948
1.1357333583431054e-6,4.088107357594137,8.176214715194709,6.446407924482419e-12,0.0,0.9999959118926424,0.11357018773684371,0.22714038405964676,8.585959236233666e-9,0.0,0.6592894196175503
1.3354515629298988e-6,4.49671426328645,8.993428526584431,1.1528149152641074e-11,0.0,0.9999955032857367,0.13354097545565274,0.26708196486991065,1.3958604957997636e-8,0.0,0.5993770457158317
1.5702901247293773e-6,5.095609463350211,10.19121892672166,2.12377205265095e-11,0.0,0.9999949043905366,0.15702340504672488,0.3140468327865942,2.2693144025578046e-8,0.0,0.5289297394735369
1.8464249428955437e-6,6.04174267633502,12.083485352710978,4.093816322853711e-11,0.0,0.9999939582573236,0.1846349027389966,0.36926984237122434,3.6893230785341525e-8,0.0,0.4460952179965482
2.1711179456945044e-6,7.729276915916913,15.458553831918978,8.514465063287316e-11,0.0,0.999992270723084,0.2171014084004755,0.434202876779774,5.997882262825515e-8,0.0,0.34869565484092785
2.552908068239517e-6,11.509208422225043,23.018416844656194,2.0611798173835188e-10,0.0,0.9999884907915778,0.25527635395211257,0.510552805414003,9.750977762629361e-8,0.0,0.23417074312410677
3.0018358135755894e-6,27.080567483048632,54.16113496688572,7.884496791856087e-10,0.0,0.999972919432517,0.3001621818913801,0.6003245223073468,1.585245860245695e-7,0.0,0.09951313727668708
3.52970730273065e-6,177111.47735103648,354222.9547097785,7.705547183743204e-6,0.0,0.8228885226489635,0.33333316274384167,0.6666665809007823,2.554131022970872e-7,0.0,9.42273741099295e-10
4.150404757850476e-6,556006.5225693684,1.112013045170147e6,3.140994151572244e-5,0.0,0.44399347743063167,0.33333308211630003,0.6666665409079346,3.7667533712864555e-7,0.0,3.0042814186969407e-10
4.880251583654431e-6,785072.9463079707,1.570145892674407e6,5.846597151138924e-5,0.0,0.21492705369202936,0.3333329870892517,0.6666664934381676,5.192596666655755e-7,0.0,2.1291406335473823e-10
5.738441648302394e-6,908420.3648086847,1.8168407297071002e6,8.972944974188088e-5,0.0,0.09157963519131529,0.3333328753287254,0.6666664375723257,6.869148771894604e-7,0.0,1.8407165886991465e-10
6.747544053110695e-6,966413.936932677,1.9328278739915183e6,0.0001261633974352885,0.0,0.033586063067322924,0.333332743909841,0.6666663718683918,8.840487117056675e-7,0.0,1.7305543331431412e-10
7.934096665797492e-6,989674.1709971576,1.9793483421631537e6,0.00016883679781442532,0.0,0.010325829002842402,0.33333258938123694,0.6666662946061176,1.1158436455007021e-6,0.0,1.690000182690247e-10
9.329304026284684e-6,997419.6740522339,1.9948393483234125e6,0.00021894352693123024,0.0,0.0025803259477660268,0.3333324076821157,0.6666662037572112,1.3883929819200586e-6,0.0,1.676911900477461e-10
1.0969857978923835e-5,999494.3239857925,1.998988648249425e6,0.00027783963111864123,0.0,0.000505676014207479,0.33333219403700104,0.666666096934828,1.708860826769823e-6,0.0,1.6734410110686323e-10
1.2898902612533087e-5,999925.1294620475,1.9998502592711882e6,0.00034709161664916305,0.0,7.487053795252052e-5,0.33333194283082956,0.6666659713317783,2.085670119825855e-6,0.0,1.6727231477765101e-10
1.5167168884709225e-5,999991.5629743638,1.9999831263772573e6,0.00042852908816846784,0.0,8.437025636243156e-6,0.33333164746182686,0.6666658236472829,2.5287236288571886e-6,0.0,1.6726139491148072e-10
1.7834308769319092e-5,999998.798703431,1.9999975979311618e6,0.0005242998080660103,0.0,1.2012965689978117e-6,0.3333313001684713,0.6666656500006056,3.049663663316272e-6,0.0,1.6725982454500728e-10
2.097046401323233e-5,999999.3235547824,1.9999986477464943e6,0.0006369294031335899,0.0,6.764452176177826e-7,0.3333308918260718,0.666665445829406,3.6621772622229346e-6,0.0,1.672599809962278e-10
2.4658110758226026e-5,999999.3470744533,1.9999986949182958e6,0.0007693892856019453,0.0,6.529255467402351e-7,0.33333041170772826,0.6666652057702344,4.382354777794137e-6,0.0,1.672595886264262e-10
2.899422853882877e-5,999999.3474829895,1.9999986958911552e6,0.0009251759562428405,0.0,6.525170104243472e-7,0.3333298472034861,0.6666649235181131,5.22911114069002e-6,0.0,1.6726016338994992e-10
3.409285069746813e-5,999999.3472495793,1.9999986956075628e6,0.0011084043296209036,0.0,6.527504207154422e-7,0.33332918349045576,0.666664591661598,6.2246806860284e-6,0.0,1.6726029498668267e-10
4.008806328898464e-5,999999.3469653637,1.9999986952546455e6,0.001323917975450984,0.0,6.53034636255434e-7,0.33332840314539475,0.6666642014890675,7.395198277652761e-6,0.0,1.6726019060681258e-10
4.713753134116724e-5,999999.346631075,1.999998694839568e6,0.001577418406241232,0.0,6.533689249632602e-7,0.33332748568982495,0.6666637427612827,8.771381632368612e-6,0.0,1.6725997038671662e-10
5.542664520663104e-5,999999.3462379252,1.9999986943514715e6,0.0018756208226757606,0.0,6.537620748092721e-7,0.3333264070560719,0.666663203444406,1.0389332261827711e-5,0.0,1.6726020667333353e-10
6.517339604882424e-5,999999.3457753505,1.9999986937771337e6,0.002226432537966017,0.0,6.54224649565549e-7,0.33332513896066773,0.666662569396704,1.2291475368319488e-5,0.0,1.6725996204174803e-10
7.66341086800746e-5,999999.3452315079,1.9999986931021842e6,0.0026391685616065975,0.0,6.547684920921171e-7,0.3333236481693082,0.6666618240010243,1.452766240758948e-5,0.0,1.6725989829913062e-10
9.011018251665018e-5,999999.3445917907,1.99999869230839e6,0.0031248091374455784,0.0,6.554082092602442e-7,0.3333218956349621,0.666660947733851,1.715646392668418e-5,0.0,1.6726015900401332e-10
0.0001059560179277616,999999.3438389958,1.999998691374296e6,0.003696304361532578,0.0,6.561610041977417e-7,0.33331983548773975,0.6666599176602402,2.0246684760072916e-5,0.0,1.6725988321347383e-10
0.00012458833642950082,999999.3429539435,1.9999986902767983e6,0.004368911333601193,0.0,6.570460564514491e-7,0.333317413851723,0.6666587068422314,2.3879138785430674e-5,0.0,1.6726020703078143e-10
0.00014649713983072864,999999.3419124166,1.9999986889854912e6,0.005160657952959455,0.0,6.580875834272248e-7,0.33331456746007326,0.6666572836464065,2.814872626010768e-5,0.0,1.6726010020637425e-10
0.00017225859653987856,999999.3406866742,1.9999986874661734e6,0.006092825637350719,0.0,6.593133258236961e-7,0.3333112220353602,0.666655610934051,3.3166863329069096e-5,0.0,1.6725968526865032e-10
0.00020255019392306664,999999.3392451463,1.9999986856808355e6,0.007190544117538683,0.0,6.607548537207464e-7,0.3333072903971508,0.6666536451149453,3.906432064412586e-5,0.0,1.6725979117487378e-10
0.00023816855519761583,999999.3375479782,1.9999986835795194e6,0.008483563068694413,0.0,6.624520219045138e-7,0.3333026702534742,0.666651335043107,4.599453615887725e-5,0.0,1.672598285662962e-10
0.0002800503894183631,999999.3355517027,1.999998681110504e6,0.010007098674962684,0.0,6.644482973827692e-7,0.33329724162690855,0.6666486207298232,5.413747600774667e-5,0.0,1.6726047945351792e-10
0.0003292971255097152,999999.3331981461,1.9999986781991452e6,0.011802852904731194,0.0,6.668018539546239e-7,0.3332908638597113,0.6666454318462253,6.370412680357816e-5,0.0,1.6725985986585767e-10
0.0003872038781812557,999999.3304301439,1.999998674780637e6,0.013920349771445135,0.0,6.695698561154373e-7,0.33328337213595377,0.6666416859843468,7.4941712439463e-5,0.0,1.6725990094356748e-10
0.00045529350748669476,999999.3271692726,1.9999986707569754e6,0.01641842974390181,0.0,6.72830727466156e-7,0.33327457345216216,0.6666372866424511,8.813973812727954e-5,0.0,1.6725941759268646e-10
0.0005353566677410725,999999.3233274018,1.9999986660219454e6,0.019367142566457725,0.0,6.766725981766086e-7,0.3332642419620718,0.6666321208974059,0.00010363697326274718,0.0,1.67259558593179e-10
0.0006294988990221888,999999.3188000205,1.9999986604500795e6,0.022850037897228382,0.0,6.811999795353074e-7,0.33325211361641577,0.6666260567245779,0.00012182949174675368,0.0,1.672596690462753e-10
0.0007401959996915645,999999.3134609411,1.999998653888855e6,0.026966972099585915,0.0,6.865390589361198e-7,0.33323788001618976,0.6666189399244651,0.00014317989208577177,0.0,1.672594441691922e-10
0.0008703591361485165,999999.307164421,1.9999986461663858e6,0.03183754312831841,0.0,6.928355790192242e-7,0.3332211813990772,0.6666105906159123,0.00016822781775160535,0.0,1.6725887751092676e-10
0.0010234114021054528,999999.2997385684,1.999998637082616e6,0.03760547909229782,0.0,7.002614316187206e-7,0.3332015986857351,0.6666007992592372,0.00019760188776807777,0.0,1.6725964577658618e-10
0.001203377840777589,999999.2909690636,1.9999986263820776e6,0.04444395058671209,0.0,7.090309364077285e-7,0.3331786445282325,0.6665893221804894,0.0002320331240187696,0.0,1.6725930799339934e-10
0.0014149912974345759,999999.280602575,1.999998613767339e6,0.052562188402168,0.0,7.193974249641855e-7,0.3331517533313682,0.6665758765820519,0.00027236991932097146,0.0,1.672590157195987e-10
0.0016638168860761292,999999.2683452191,1.9999985989045377e6,0.06221409928968101,0.0,7.316547808722262e-7,0.3331202702636966,0.6665601350482248,0.00031959452082007693,0.0,1.672585513015981e-10
0.001956398343517065,999999.2538488018,1.9999985814062876e6,0.07370867809751049,0.0,7.461511981610158e-7,0.33308343934676155,0.666541719589738,0.000374840896241973,0.0,1.6725852430496402e-10
0.002300430119772917,999999.2366656541,1.9999985607548829e6,0.08742357502028746,0.0,7.633343458435249e-7,0.33304039081661235,0.666520195324664,0.00043941369146515243,0.0,1.672584394119339e-10
0.0027049597304631343,999999.2162845457,1.9999985363911903e6,0.10382210120707762,0.0,7.837154543111069e-7,0.3329901281044807,0.6664950639686203,0.0005148077596416248,0.0,1.6725732767102625e-10
0.003180625692794119,999999.192087134,1.9999985076495043e6,0.12347523247805002,0.0,8.079128660520851e-7,0.33293151499657014,0.666465757414654,0.0006027274215182679,0.0,1.6725761856246912e-10
0.0037399373024787977,999999.1633003432,1.9999984736891207e6,0.14708843300881663,0.0,8.366996567810148e-7,0.33286326382531023,0.6664316318290362,0.0007051041783959807,0.0,1.6725764805276822e-10
0.004397603609302721,999999.1290244625,1.9999984335870396e6,0.1755381046780637,0.0,8.709755374702866e-7,0.3327839259371257,0.6663919628849746,0.0008241110106428328,0.0,1.6725687837764597e-10
0.005170920242896761,999999.0881059803,1.9999983861265643e6,0.20991460665670386,0.0,9.118940197394565e-7,0.3326918861918674,0.666345943012275,0.0009621706286018391,0.0,1.6725574733793963e-10
0.006080224261649421,999999.0392116059,1.999998330002834e6,0.25157962391218286,0.0,9.607883940665474e-7,0.3325853639013775,0.666292681867063,0.0011219540643044646,0.0,1.672550097552017e-10
0.007149428986597577,999998.9806395859,1.9999982635158452e6,0.3022366765815374,0.0,1.019360414078463e-6,0.3324624234137231,0.666231211623278,0.0013063647957442621,0.0,1.6725458951843963e-10
0.008406652885618326,999998.9103466598,1.9999981847119476e6,0.36401864992213767,0.0,1.0896533401139052e-6,0.3323209984875358,0.6661604991601834,0.0015185021850277949,0.0,1.6725299790965042e-10
0.009884959046625588,999998.8258107669,1.9999980912166364e6,0.4395951041084509,0.0,1.1741892330663362e-6,0.33215893563753085,0.666079467735183,0.0017615964600338622,0.0,1.6725228168569528e-10
0.011623224686798517,999998.7239449167,1.9999979801916615e6,0.5323018272897497,0.0,1.2760550832657813e-6,0.33197406265653767,0.6659870312447187,0.0020389059314921626,0.0,1.6725141323975512e-10
0.013667163564620074,999998.6009966171,1.9999978482862578e6,0.6462929853741789,0.0,1.399003382918096e-6,0.33176428933571867,0.6658821445843238,0.0023535659127078157,0.0,1.6724969846559912e-10
0.016070528182616384,999998.4523389942,1.9999976913916185e6,0.7867136329368829,0.0,1.5476610057962858e-6,0.33152774767624577,0.6657638737545296,0.0027083784019763055,0.0,1.6724837313686347e-10
0.018896523396912116,999998.2724140505,1.999997504710303e6,0.9598821754744652,0.0,1.7275859495180512e-6,0.33126297809050553,0.665631488961684,0.003105532780563948,0.0,1.672465152480207e-10
0.02221946860939524,999998.0545226376,1.9999972825236493e6,1.1734783958530008,0.0,1.945477362430559e-6,0.3309691654922261,0.665484582662569,0.00354625167796059,0.0,1.6724426097486367e-10
0.026126752255633268,999997.7907207487,1.9999970181429086e6,1.436701415855723,0.0,2.209279251319529e-6,0.3306464238032361,0.6653232118180025,0.004030364211518685,0.0,1.6724278992935604e-10
0.03072112998861759,999997.4716496341,1.9999967036619864e6,1.7603626928070608,0.0,2.528350365960108e-6,0.33029611820640875,0.6651480590196592,0.004555822606691702,0.0,1.672402589678046e-10
0.0361234269970943,999997.0866172311,1.999996330114208e6,2.1568797902921615,0.0,2.9133827688099245e-6,0.32992120055822227,0.6649606001956022,0.005118199078937728,0.0,1.6723778611948958e-10
0.04247571552536903,999996.6235730043,1.9999958872381342e6,2.640092106345362,0.0,3.3764269957714532e-6,0.32952651446343617,0.6647632571483416,0.005710228220987076,0.0,1.6723513979882698e-10
0.049945051158551405,999996.0693757468,1.9999953635930389e6,3.2248414918185504,0.0,3.930624253190018e-6,0.3291190042071033,0.6645595020199861,0.006321493605678301,0.0,1.672322792398151e-10
0.05872786613189477,999995.4101981678,1.9999947467051367e6,3.9263087813387205,0.0,4.589801832266538e-6,0.32870774017582943,0.6643538700043796,0.006938389652561057,0.0,1.6722994516937817e-10
0.06905513520162332,999994.6320769921,1.9999940232364365e6,4.759082447274219,0.0,5.367923007870701e-6,0.3283036609748119,0.6641518304038608,0.007544508454100434,0.0,1.6722683914699443e-10
0.0811984499318401,999993.7215975113,1.9999931793028696e6,5.736107851151202,0.0,6.278402488679724e-6,0.32791894204630895,0.6639594709395621,0.008121586846904092,0.0,1.672249248796387e-10
0.09547716114208066,999992.6664463547,1.9999922006461867e6,6.867753481118055,0.0,7.333553645350044e-6,0.3275659471698952,0.6637829735013405,0.008651079161541845,0.0,1.672224546334089e-10
0.11226677735108136,999991.4557444432,1.9999910728375544e6,8.161348626639557,0.0,8.544255556741653e-6,0.3272558141949577,0.6636279070138689,0.009116278623952763,0.0,1.6722061929597132e-10
0.13200884008314168,999990.0797798637,1.9999897811917532e6,9.621632023388544,0.0,9.920220136239166e-6,0.32699686569826764,0.6634984327654986,0.009504701369014875,0.0,1.6721896436977524e-10
0.15522253574270478,999988.5290657029,1.9999883104837146e6,11.252352302734087,0.0,1.1470934297097557e-5,0.3267931858546853,0.6633965928437877,0.009810221134309391,0.0,1.672175869993353e-10
0.18251834943190423,999986.792626317,1.9999866441619885e6,13.058909355589838,0.0,1.3207373683044032e-5,0.3266437980180853,0.6633218989254727,0.010034302889224921,0.0,1.672171186239968e-10
0.2146141197858406,999984.8564410981,1.999984764131383e6,15.051249193508328,0.0,1.5143558901864473e-5,0.32654282466270157,0.6632714122477407,0.010185762922341529,0.0,1.6721623564974752e-10
0.2523539170434766,999982.7025255405,1.9999826507610169e6,17.245709935339015,0.0,1.729747445955443e-5,0.32648075529902,0.6632403775659141,0.010278866967850157,0.0,1.6721571523270473e-10
0.29673024081888666,999980.3097827573,1.9999802839993464e6,19.664433831712607,0.0,1.9690217242684938e-5,0.3264465351106428,0.66322326747172,0.010330197250421615,0.0,1.672155729853797e-10
0.3489101213406774,999977.6569326295,1.9999776455968812e6,22.331731622056793,0.0,2.234306737047831e-5,0.3264298049040609,0.663214902368429,0.010355292560294263,0.0,1.6721586094947671e-10
0.41026581058271905,999974.7273678508,1.999974722872024e6,25.268136321943604,0.0,2.5272632149131447e-5,0.3264225251033133,0.6632112624680498,0.010366212261420819,0.0,1.672160708510173e-10
0.4824108704165374,999971.514199506,1.999971512354024e6,28.483955012348286,0.0,2.8485800493971425e-5,0.3264195284962826,0.6632097641645337,0.01037070717196754,0.0,1.672162304455771e-10
0.5672426068491978,999968.0249436344,1.9999680239429113e6,31.974055642342677,0.0,3.1975056365540766e-5,0.3264181006185314,0.6632090502256576,0.010372848988594759,0.0,1.6721628942617528e-10
0.6669919663030115,999964.2846815137,1.9999642838553162e6,35.71449228963702,0.0,3.571531848634013e-5,0.32641710291642156,0.6632085513746019,0.010374345541759311,0.0,1.6721724005464011e-10
0.7842822061337682,999960.3387503313,1.9999603380037493e6,39.66050308615944,0.0,3.966124966869877e-5,0.326416169871762,0.6632080848522725,0.01037574510874849,0.0,1.6721703015309952e-10
0.9221978823334323,999956.2538597822,1.999956253115847e6,43.745396282085366,0.0,4.3746140217737484e-5,0.3264152237443858,0.6632076117885846,0.010377164299812907,0.0,1.6721672484176775e-10
1.084365968689611,999952.11864717,1.9999521179594402e6,47.88066510008682,0.0,4.788135282995931e-5,0.3264142682391446,0.663207134035964,0.010378597557674377,0.0,1.672169815808422e-10
1.2750512407130128,999948.040987563,1.9999480403807785e6,51.9584056524078,0.0,5.195901243704171e-5,0.32641332619979474,0.6632066630162886,0.010380010616699029,0.0,1.6721756444793012e-10
1.4992684327860473,999944.1422807277,1.999944141769637e6,55.85720818079003,0.0,5.5857719272300876e-5,0.3264124255042076,0.663206212668495,0.010381361660079698,0.0,1.672177327161073e-10
1.762914118095948,999940.547388179,1.9999405469582195e6,59.45218186182445,0.0,5.945261182105366e-5,0.32641159499643024,0.663205797414606,0.010382607421745965,0.0,1.6721784547313323e-10
