t (s),FA (mol/s/mol site),FB (mol/s/mol site),FC (mol/s/mol site),FP (mol/s/mol site),XA,θA,θB,θC,θP,θV
1.0000000000000001e-7,0.27786695719956434,0.5557339143992606,6.317248834866883e-15,0.0,0.9999972213304281,0.00999969176589042,0.01999938609500041,1.224272277350491e-10,1.2203961714721076e-9,0.9700009207962859
1.1758495540521568e-7,0.2793875008197734,0.5587750016397307,1.0250011855002699e-14,0.0,0.9999972061249919,0.01175818033379039,0.023516364241340817,1.9903914603522135e-10,1.6873604464257182e-9,0.9647254535384692
1.382622173764656e-7,0.28119674134282363,0.5623934826859048,1.6722687112445025e-14,0.0,0.9999971880325866,0.013825898145237749,0.027651801280063754,3.2359229191074966e-10,2.3329979834290927e-9,0.9585222979181083
1.6257556664437941e-7,0.28335377782873583,0.5667075556578339,2.7381419414676804e-14,0.0,0.9999971664622217,0.016257222944045722,0.032514452865525005,5.260864911547506e-10,3.2256735379924704e-9,0.9512283204386692
1.9116440753857023e-7,0.28593140131506967,0.5718628026306517,4.492883524597485e-14,0.0,0.9999971406859868,0.019116094739341123,0.038232199253796104,8.552942558011222e-10,4.4599097990461335e-9,0.9426517006916587
2.2478058335487253e-7,0.2890182233574215,0.5780364467155813,7.732707162257416e-14,0.0,0.9999971098177665,0.022477697307431314,0.044955408338162195,1.3905076140445783e-9,6.166395977669948e-9,0.932566886797503
2.6430814869741053e-7,0.29273335997773015,0.5854667199565722,1.4749889175009583e-13,0.0,0.9999970726664001,0.0264304353661859,0.05286089004465962,2.2606359670327722e-9,8.52582592318716e-9,0.9207086638026925
3.107866187782013e-7,0.2972492612667143,0.594498522535042,2.4452280191895184e-13,0.0,0.9999970275073874,0.031078259444121053,0.06215654613956347,3.675258836650932e-9,1.1788031259298875e-8,0.9067651789530254
3.654383070957256e-7,0.30276501816031093,0.6055300363229271,3.883965537446803e-13,0.0,0.9999969723498184,0.03654339953601282,0.07308683764399176,5.9750971159699824e-9,1.6298434493721824e-8,0.8903697405464638
4.297004704320841e-7,0.3095381907624075,0.6190763815281041,6.145636200814149e-13,0.0,0.9999969046180924,0.04296957943888288,0.085939213661094,9.714079475367791e-9,2.2534624376662762e-8,0.8710911746513192
5.05263106533568e-7,0.3179047926708067,0.6358095853463392,9.850009242754884e-13,0.0,0.9999968209520733,0.050525796274186324,0.10105167065498186,1.5792758171970347e-8,3.115692551227246e-8,0.8484224861211481
5.941133984965034e-7,0.32830695660426995,0.6566139132154161,1.6068419171142604e-12,0.0,0.9999967169304339,0.05941076455156796,0.11882164093498028,2.5675210482476707e-8,4.3078316933239214e-8,0.8217675257599243
6.985879746785247e-7,0.3413315109994977,0.6826630220091565,2.6634880626706937e-12,0.0,0.99999658668489,0.06985814158380128,0.13971644403147576,4.1741667330300565e-8,5.9561102921088766e-8,0.7904253130819526
8.214343584919427e-7,0.35776416212714895,0.7155283242695619,4.466353812978164e-12,0.0,0.9999964223583787,0.08214267157382678,0.16428557571059862,6.786180112477441e-8,8.235057197698666e-8,0.7535716025032013
9.658832241158701e-7,0.3797161346639187,0.7594322693523088,8.240131147444822e-12,0.0,0.9999962028386534,0.0965874086366633,0.193175155319659,1.1032674244321892e-7,1.1385979499776876e-7,0.7102372118571403
1.1357333583431054e-6,0.4103454282706677,0.8206908565806407,1.471690754901936e-11,0.0,0.9999958965457173,0.11357221190602905,0.2271449180266929,1.79364365931171e-7,1.5742513444374328e-7,0.6592825332777776
1.3354515629298988e-6,0.4527891143733606,0.9055782288096479,2.5676564094666264e-11,0.0,0.9999954721088563,0.13354373198407124,0.2670881908897012,2.916025567434363e-7,2.1765950097239554e-7,0.5993675678641698
1.5702901247293773e-6,0.5120824877721813,1.0241649756468334,4.536129654134415e-11,0.0,0.9999948791751223,0.15702715047696858,0.3140553769095794,4.7407407675072035e-7,3.009407827553791e-7,0.5289166975985925
1.8464249428955437e-6,0.6064952429091388,1.2129904860018037,8.939032782743459e-11,0.0,0.999993935047571,0.1846399705572611,0.3692815440162231,7.707274086934821e-7,4.160871461327423e-7,0.446077298611961
2.1711179456945044e-6,0.8038514712758869,1.6077029429321088,2.0187626259649067e-10,0.0,0.9999919614852872,0.21710820974125503,0.43421882307590143,1.2530119613132448e-6,5.752907151499816e-7,0.3486711388801671
2.552908068239517e-6,1.1458391707602595,2.291678342280987,4.2688887411874764e-10,0.0,0.9999885416082924,0.25528551862746107,0.5105746651563692,2.0370848243482482e-6,7.954083116076577e-7,0.2341369837230338
3.0018358135755894e-6,3.1358671711660717,6.271734345635492,1.9977519254512968e-9,0.0,0.9999686413282883,0.3001739270827898,0.6003533654397466,3.311782674899109e-6,1.0997457468738773e-6,0.09946829594904184
3.52970730273065e-6,17726.50578986845,35453.01160521197,1.6108944134513295e-5,0.0,0.8227349421013155,0.3333282534079684,0.666664874313546,5.335882123020531e-6,1.5158129207094092e-6,2.0583441773595645e-8
4.150404757850476e-6,55608.351951829674,111216.70400467067,6.561604867065681e-5,0.0,0.44391648048170335,0.3333260664343675,0.6666640434636969,7.868985011385725e-6,2.0208303095889678e-6,2.866145532803964e-10
4.880251583654431e-6,78510.48555322741,157020.97129030392,0.00012212148211351748,0.0,0.21489514446772592,0.3333234869877185,0.6666630506339875,1.0847470549541341e-5,2.614650399656779e-6,2.5734482873542497e-10
5.738441648302394e-6,90842.05106573403,181684.10240868686,0.00018741139325620187,0.0,0.09157948934265969,0.3333204540169701,0.6666618832377955,1.4349635212133513e-5,3.3128874295032e-6,2.225927668746365e-10
6.747544053110695e-6,96640.47405655988,193280.94849771983,0.0002634942801900061,0.0,0.03359525943440134,0.3333168877877216,0.6666605105674874,1.846753474970389e-5,4.133900753568078e-6,2.0928768186653286e-10
7.934096665797492e-6,98964.79587426235,197929.59225814277,0.0003525986666945094,0.0,0.010352041257376543,0.33331269456951035,0.6666588965485246,2.330940025517892e-5,5.099277323876233e-6,2.0438592566273783e-10
9.329304026284684e-6,99739.97568358816,199479.95202324947,0.0004572130705769259,0.0,0.0026002431641185264,0.3333077641602285,0.6666569987602878,2.9002477762726466e-5,6.234398922423497e-6,2.0279856871719114e-10
1.0969857978923835e-5,99947.67579598009,199895.35242003953,0.0005801622885851824,0.0,0.0005232420401991844,0.33330196699717357,0.6666547673260953,3.569636534256531e-5,7.569109011399901e-6,2.0237722043360963e-10
1.2898902612533087e-5,99990.85584348488,199981.7127172358,0.0007247080559252356,0.0,9.144156515122903e-5,0.3332951507607358,0.6666521436058357,4.356693447011359e-5,9.138496669387344e-6,2.0228901714961823e-10
1.5167168884709225e-5,99997.66060641715,199995.32248081407,0.000894657542643486,0.0,2.339393582850846e-5,0.3332871363833341,0.6666490586588195,5.282093743807413e-5,1.0983818134479354e-5,2.0227386044709215e-10
1.7834308769319092e-5,99998.60070829053,199997.20296405337,0.0010944767071687726,0.0,1.39929170947517e-5,0.3332777133603363,0.6666454314372323,6.370142010314786e-5,1.3153580057667122e-5,2.0227057678665278e-10
2.097046401323233e-5,99998.60439194938,199997.21065998258,0.0013294127535092527,0.0,1.3956080506249968e-5,0.3332666342418078,0.6666411666634302,7.64940797212459e-5,1.5704812772189433e-5,2.0226855573215931e-10
2.4658110758226026e-5,99998.64608059796,199997.29442363748,0.0016056329772198607,0.0,1.3539194020500966e-5,0.3332536081631913,0.6666361523362416,9.1534731488953e-5,1.870456681205807e-5,2.022660886809378e-10
2.899422853882877e-5,99998.63189544194,199997.2665075682,0.0019303859974747863,0.0,1.3681045580721252e-5,0.33323829324884774,0.6666302568020027,0.00010921807519775362,2.2231671687895457e-5,2.0226383785689893e-10
3.409285069746813e-5,99998.63700339981,199997.2772575277,0.0023121908405321786,0.0,1.3629966001960092e-5,0.33322028769427064,0.6666233253150685,0.0001300079857080747,2.637880269230667e-5,2.0226040261991365e-10
4.008806328898464e-5,99998.6406332383,199997.2851450539,0.002761058684505128,0.0,1.3593667616967897e-5,0.3331991193001761,0.6666151759997295,0.00015444958841334707,3.125490942416167e-5,2.0225687137343787e-10
4.713753134116724e-5,99998.63820436868,199997.28102542544,0.0032887530056336296,0.0,1.3617956313299873e-5,0.3331742331938569,0.6666055951107094,0.0001831834242005331,3.6988068980303754e-5,2.0225280947776128e-10
5.542664520663104e-5,99998.63467552688,199997.27483544563,0.003909094599468185,0.0,1.3653244731320902e-5,0.33314497742962956,0.6665943314721537,0.00021696205838717198,4.372883758131894e-5,2.0224820119839988e-10
6.517339604882424e-5,99998.63664407759,199997.27979255436,0.0046383190498958116,0.0,1.3633559224207614e-5,0.33311058611000394,0.6665810899552183,0.00025666954551301167,5.165418702269924e-5,2.0224215455545008e-10
7.66341086800746e-5,99998.63682587331,199997.2813551339,0.0054954954150759835,0.0,1.3631741266895148e-5,0.33307015961172937,0.6665655238314742,0.0003033442275047201,6.097212705644019e-5,2.0223531319230785e-10
9.011018251665018e-5,99998.63646321508,199997.28203910933,0.006503016269656552,0.0,1.3635367849262892e-5,0.3330226414354157,0.666547225813164,0.0003582054172678908,7.192713192524698e-5,2.0222720455945632e-10
0.0001059560179277616,99998.63551932412,199997.28180770032,0.00768717078738575,0.0,1.3644806758916772e-5,0.33296679112337046,0.6665257175612868,0.00042268460397199974,8.480650915311043e-5,2.022176682966179e-10
0.00012458833642950082,99998.63414842299,199997.28101251865,0.009078814276155837,0.0,1.3658515770065272e-5,0.3329011526071013,0.6665004374086348,0.0004984619103318852,9.994787172555167e-5,2.0220642213853324e-10
0.00014649713983072864,99998.63291432908,199997.28083184946,0.010714149485318004,0.0,1.367085670930801e-5,0.3328240172537306,0.6664707260066098,0.0005875086360661433,0.00011774790140001211,2.0219333238952197e-10
0.00017225859653987856,99998.63233129428,199997.28235361035,0.012635637054887714,0.0,1.3676687057179171e-5,0.3327333807804532,0.6664358095625048,0.000692136833385238,0.00013867262147859887,2.0217812745693987e-10
0.00020255019392306664,99998.63107855382,199997.28300591686,0.014893054816802663,0.0,1.3689214461848342e-5,0.33262689309292626,0.666394780284613,0.0008150569875417296,0.00016326943275911013,2.0215993923365996e-10
0.00023816855519761583,99998.62959492578,199997.28374800523,0.017544727686361908,0.0,1.370405074224701e-5,0.3325017999993536,0.6663465736061995,0.000959444986345569,0.00019218120596274023,2.0213857156040418e-10
0.0002800503894183631,99998.62783796262,199997.28459054782,0.020658952219012677,0.0,1.3721620373829957e-5,0.3323548756341386,0.6662899417043338,0.0011290196897438204,0.00022616276966997583,2.0211388004854822e-10
0.0003292971255097152,99998.62575842743,199997.28554690353,0.024315642246239076,0.0,1.3742415725798152e-5,0.33218234430720706,0.6662234227690669,0.0013281325372057513,0.0002661001844360068,2.0208431071111824e-10
0.0003872038781812557,99998.62330022249,199997.28663563062,0.028608223172252003,0.0,1.3766997775110923e-5,0.3319797904197213,0.6661453054330396,0.0015618706951421913,0.00031303325004692083,2.0205000818068405e-10
0.00045529350748669476,99998.62040127584,199997.28788530728,0.03364580355054556,0.0,1.3795987241632668e-5,0.33174205501969684,0.6660535877194498,0.0018361753026086996,0.0003681817562351277,2.0200961275930115e-10
0.0005353566677410725,99998.61699626387,199997.28934345412,0.03955565197882406,0.0,1.3830037361439729e-5,0.33146311756939006,0.6659459298312888,0.0021579763420147766,0.0004329760553442263,2.019621806489784e-10
0.0006294988990221888,99998.61302268573,199997.2910926306,0.04648600475431783,0.0,1.3869773142771713e-5,0.33113596158008923,0.665819600089793,0.0025353455201732648,0.0005090926080377832,2.0190664569950945e-10
0.0007401959996915645,99998.6084328734,199997.2932789003,0.05460922404952373,0.0,1.391567126599047e-5,0.330752422985554,0.6656714133487224,0.0029776682356255106,0.0005984952282564912,2.0184155117685537e-10
0.0008703591361485165,99998.60300686095,199997.29574241862,0.06412530899226472,0.0,1.3969931390578338e-5,0.3303030208338428,0.6654976613882261,0.003495834764602393,0.000703482811563738,2.0176501322553136e-10
0.0010234114021054528,99998.59665264239,199997.29862354675,0.07526579101087846,0.0,1.4033473576119393e-5,0.3297767686980671,0.6652940342470512,0.004102452355806399,0.0008267444973997874,2.016755205761292e-10
0.001203377840777589,99998.58921825443,199997.3019928492,0.08829788978671363,0.0,1.4107817455644156e-5,0.329160971562301,0.6650555336909495,0.004812071541288573,0.0009714230038902829,2.0157069513960374e-10
0.0014149912974345759,99998.58052789238,199997.3059296173,0.10352896352585203,0.0,1.4194721076193906e-5,0.3284410066089595,0.6647763774162065,0.005641428454071885,0.0011411873193138908,2.0144820772442784e-10
0.0016638168860761292,99998.57038018656,199997.31052489896,0.12131107079168288,0.0,1.4296198134478022e-5,0.3276000952738667,0.664449895703954,0.006609693224896529,0.001340315595977522,2.0130529838555122e-10
0.001956398343517065,99998.55854571566,199997.31588293097,0.14204545743722052,0.0,1.4414542843510514e-5,0.3266190742823009,0.6640684220124008,0.0077387143000155765,0.0015737892041445627,2.011380970633192e-10
0.002300430119772917,99998.54476482769,199997.32212270467,0.16618666897306633,0.0,1.4552351723096102e-5,0.32547617827977665,0.6636231803822502,0.009053242362880765,0.0018473987741490325,2.0094339625402469e-10
0.0027049597304631343,99998.52874567178,199997.329378656,0.1942457923836572,0.0,1.4712543282280333e-5,0.32414685521614084,0.6631041750644899,0.010581106856508652,0.0021678626621440453,2.0071653237044296e-10
0.003180625692794119,99998.51015943704,199997.3377941521,0.22679230867137323,0.0,1.4898405629737432e-5,0.3226036374651887,0.6625000873502421,0.012353316800722996,0.0025429581833931107,2.0045304522167684e-10
0.0037399373024787977,99998.48864537846,199997.3475314483,0.2644535157681421,0.0,1.511354621550054e-5,0.32081611176362523,0.6617981929390204,0.014404029388866651,0.002981665708340714,2.0014697711678853e-10
0.004397603609302721,99998.46381257116,199997.3587690455,0.3079103628836056,0.0,1.536187428846647e-5,0.3187510400243878,0.6609843126047498,0.016770323190248026,0.0034943239808218713,1.997925236710274e-10
0.005170920242896761,99998.43524477724,199997.37170028914,0.35788896244618573,0.0,1.5647552227687767e-5,0.3163726636688628,0.6600428026215343,0.0194917359330144,0.004092797577204898,1.993835955713119e-10
0.006080224261649421,99998.4025098227,199997.38653115786,0.41514495089063125,0.0,1.5974901773074812e-5,0.31364331511169136,0.6589566210474515,0.022609412923452376,0.004790650718490779,1.989140926625388e-10
0.007149428986597577,99998.36516367094,199997.4034545526,0.48043832974300693,0.0,1.6348363290619172e-5,0.3105244444259404,0.6577074964884484,0.02616473679751614,0.005603322089719961,1.983750984660415e-10
0.008406652885618326,99998.3227869392,199997.42267093586,0.5544961734557826,0.0,1.6772130608105895e-5,0.306978157818752,0.6562762399972342,0.030197297256081657,0.006548304730172061,1.9776007394167738e-10
0.009884959046625588,99998.27501555563,199997.44438492224,0.6379651860904771,0.0,1.7249844443817386e-5,0.3029692102833597,0.6546431502604495,0.03474230778350736,0.007645331475622201,1.9706127528384965e-10
0.011623224686798517,99998.22156614241,199997.4687590506,0.7313426101494566,0.0,1.778433857596573e-5,0.29846796175261553,0.6527886653049524,0.039826843030934866,0.008916529715225989,1.9627117292531082e-10
0.013667163564620074,99998.16227842704,199997.49587864656,0.834888980762306,0.0,1.837721572958695e-5,0.293454097493901,0.6506942282999825,0.045465087933380596,0.01038658607735116,1.9538471882074582e-10
0.016070528182616384,99998.09723410192,199997.52585179234,0.9485302175273995,0.0,1.9027658980791395e-5,0.2879208082342408,0.6483432378103972,0.05165300800804072,0.012082945752925353,1.9439594899084423e-10
0.018896523396912116,99998.02675546742,199997.55863696733,1.071738383274292,0.0,1.9732445325909564e-5,0.28188002172859045,0.6457221649560099,0.0583618544845246,0.014035958637572992,1.9330214859336614e-10
0.02221946860939524,99997.9515183337,199997.5940740757,1.2033920257366317,0.0,2.048481666294677e-5,0.27536835366905327,0.6428219651918742,0.06553056051811529,0.016279120428853995,1.9210332630192894e-10
0.026126752255633268,99997.872680055,199997.63203136416,1.3417004887740334,0.0,2.1273199449917124e-5,0.2684503524501132,0.6396384419111881,0.07306162187059904,0.018849583577300343,1.9079931384835547e-10
0.03072112998861759,99997.79179719518,199997.67200997274,1.48404951292678,0.0,2.208202804818149e-5,0.2612253058318577,0.636173574882183,0.08081268496992025,0.02178843412663967,1.8939946486162818e-10
0.0361234269970943,99997.71107018227,199997.71370067823,1.6270435096025537,0.0,2.28892981773976e-5,0.25382490048713313,0.6324342431572525,0.08859885572522314,0.025142000442484307,1.8790692959957944e-10
0.04247571552536903,99997.63306439818,199997.75639068175,1.7665004451526045,0.0,2.3669356018218846e-5,0.2464136549693805,0.6284311753064539,0.09619241356275866,0.028962755975070576,1.8633638729226298e-10
0.049945051158551405,99997.56087316436,199997.79965986163,1.8977105323329326,0.0,2.439126835646066e-5,0.23917654008621184,0.6241747505986905,0.1033369054049668,0.03331180372543628,1.8469456519731864e-10
0.05872786613189477,99997.49767225086,199997.84278412347,2.0156639946452715,0.0,2.502327749148714e-5,0.23230906536549767,0.6196706162223965,0.10975954003563043,0.038260778193481296,1.8299410597943933e-10
0.06905513520162332,99997.4466364886,199997.88553278256,2.115725722696364,0.0,2.5533635114038944e-5,0.22598597627811534,0.6149099432240047,0.11520793168187887,0.043896148634767145,1.8123392370172908e-10
0.0811984499318401,99997.41049340084,199997.92757830583,2.193862684252285,0.0,2.589506599176561e-5,0.220350966852448,0.6098652778373168,0.11946247549234276,0.050321279638479086,1.794133036581158e-10
0.09547716114208066,99997.39117108421,199997.96911736295,2.2475731146529587,0.0,2.608828915798278e-5,0.21547409539428894,0.604477460927579,0.12238694801689981,0.05766149548371803,1.7751415615219202e-10
0.11226677735108136,99997.38961911929,199998.0107091174,2.2760039921509607,0.0,2.610380880715968e-5,0.21134548721072113,0.5986537828394227,0.12393490154262059,0.06606582823172906,1.7550652597897454e-10
0.13200884008314168,99997.40570946546,199998.05316760903,2.280013863266458,0.0,2.594290534549404e-5,0.20787228435821287,0.5922667948971563,0.12415308414090397,0.07570783643038,1.733469479070493e-10
0.15522253574270478,99997.4383544854,199998.09772055206,2.2620901372545608,0.0,2.5616455145982542e-5,0.20488155647338221,0.5851559334704083,0.12317693780593891,0.08678557207929155,1.7097900872897753e-10
0.18251834943190423,99997.4859766019,199998.14573939022,2.2254814124945317,0.0,2.514023398098031e-5,0.20215943362731859,0.5771399389286123,0.12118335179876483,0.09951727547696414,1.6834018901068504e-10
0.2146141197858406,99997.54700259925,199998.19851260164,2.1733510021376707,0.0,2.452997400745338e-5,0.19949052465618303,0.5680294813230211,0.1183445712143358,0.114135422641095,1.653650966160214e-10
0.2523539170434766,99997.62012486531,199998.2572269197,2.108404591026424,0.0,2.3798751346976177e-5,0.1966764611383245,0.5576349284457918,0.11480792348936454,0.1308806867645284,1.6199080965506596e-10
0.29673024081888666,99997.70462897344,199998.32282402145,2.032344525353885,0.0,2.295371026556081e-5,0.19356362166548535,0.5457780054926484,0.11066610377100146,0.14999226891270404,1.5816073450913848e-10
0.3489101213406774,99997.80031946908,199998.39587644328,1.945932816006055,0.0,2.1996805309176803e-5,0.19004515866365387,0.5322975607941589,0.10596060614026326,0.1716966742480971,1.538268401546361e-10
0.41026581058271905,99997.90711550014,199998.4766368564,1.849618158092352,0.0,2.0928844998574503e-5,0.18603872915155656,0.5170514478830193,0.10071586630415212,0.19619395651232205,1.4894993571878956e-10
0.4824108704165374,99998.02502669397,199998.56505100554,1.743548958038569,0.0,1.9749733060347996e-5,0.18149203224421506,0.49993106464670606,0.09493996965864349,0.22363693330693074,1.4350465260548617e-10
