t (s),FA (mol/s/mol site),FB (mol/s/mol site),FC (mol/s/mol site),FP (mol/s/mol site),XA,θA,θB,θC,θP,θV
1.0000000000000001e-7,0.2778669572008597,0.5557329117947376,6.3172487414703816e-15,0.0,0.9999972213304279,0.009999692986286592,0.019999386096058558,1.2242722697517e-10,0.0,0.9700009207952277
1.1758495540521568e-7,0.2793875008204114,0.5587738161607193,1.0250011990651283e-14,0.0,0.9999972061249919,0.011758182021150834,0.02351636424260214,1.990391482350822e-10,0.0,0.9647254535372078
1.382622173764656e-7,0.28119674134219297,0.5623920796100913,1.6722688037798478e-14,0.0,0.9999971880325866,0.013825900478235715,0.0276518012815707,3.2359230738330685e-10,0.0,0.9585222979166013
1.6257556664437941e-7,0.2833537778259343,0.5667058931545753,2.7381422284657692e-14,0.0,0.9999971664622217,0.016257226169719214,0.032514452867330144,5.260865420020156e-10,0.0,0.9512283204368641
1.9116440753857023e-7,0.28593140130878647,0.5718608301140278,4.492884228949898e-14,0.0,0.999997140685987,0.0191160991992508,0.038232199255964994,8.55294385701765e-10,0.0,0.9426517006894898
2.2478058335487253e-7,0.2890182233125018,0.5780341028748126,7.73272272385947e-14,0.0,0.9999971098177669,0.02247770347382687,0.044955408340777075,1.3905079929390674e-9,0.0,0.9325668867948881
2.6430814869741053e-7,0.29273335999891015,0.5854639294347209,1.4749964687439966e-13,0.0,0.9999970726664,0.026430443892010262,0.05286089004782521,2.260637059858652e-9,0.0,0.9207086637995275
3.107866187782013e-7,0.2972492616140337,0.5944951895454957,2.445241356249642e-13,0.0,0.999997027507384,0.031078271232149693,0.062156546143416126,3.675260477901129e-9,0.0,0.9067651789491737
3.654383070957256e-7,0.3027650192253211,0.6055260413977263,3.8839842879405643e-13,0.0,0.9999969723498078,0.03654341583444351,0.07308683764870842,5.975099285739483e-9,0.0,0.8903697405417488
4.297004704320841e-7,0.30953819311832387,0.6190715745862363,6.145659975696404e-13,0.0,0.9999969046180688,0.04296960197350162,0.08593921366690659,9.71408257081365e-9,0.0,0.8710911746455092
5.05263106533568e-7,0.31790479713819064,0.6358037763896076,9.850038015380692e-13,0.0,0.9999968209520286,0.0505258274311026,0.10105167066219754,1.5792763532593927e-8,0.0,0.8484224861139363
5.941133984965034e-7,0.3283069643352734,0.6566068597341159,1.606845409648978e-12,0.0,0.9999967169303566,0.05941080762986803,0.11882164094401039,2.5675221362810533e-8,0.0,0.8217675257509002
6.985879746785247e-7,0.34133152358292235,0.6826544117898219,2.6634925663333774e-12,0.0,0.9999965866847641,0.06985820114487144,0.13971644404287714,4.1741690648476425e-8,0.0,0.7904253130705609
8.214343584919427e-7,0.35776418171427915,0.7155177517278326,4.466360308898733e-12,0.0,0.9999964223581829,0.08214275392433405,0.16428557572513383,6.786185054010054e-8,0.0,0.7535716024886816
9.658832241158701e-7,0.3797161141736496,0.7594189765310014,8.240132967240093e-12,0.0,0.9999962028388583,0.0965875224963722,0.19317515533860258,1.1032684215677802e-7,0.0,0.7102372118381832
1.1357333583431054e-6,0.4103454422299245,0.8206739489163531,1.4716971410693075e-11,0.0,0.9999958965455776,0.11357236933094064,0.22714491805167464,1.7936455096278138e-7,0.0,0.6592825332528338
1.3354515629298988e-6,0.45278922390068954,0.9055564076329327,2.5676691515122217e-11,0.0,0.999995472107761,0.13354394964310778,0.26708819092327124,2.916029039915991e-7,0.0,0.5993675678307169
1.5702901247293773e-6,0.5120827851317747,1.024136398988173,4.536151199926522e-11,0.0,0.9999948791721487,0.1570274514168073,0.3140553769555793,4.7407474722648996e-7,0.0,0.5289166975528662
1.8464249428955437e-6,0.6064940678733715,1.2129476098497098,8.938958174936013e-11,0.0,0.9999939350593213,0.18464038664440613,0.36928154408585157,7.707287138590393e-7,0.0,0.4460772985410284
2.1711179456945044e-6,0.8038527555060552,1.607641249279696,2.0187799700055336e-10,0.0,0.9999919614724448,0.21710878502786699,0.43421882317844396,1.2530144439797277e-6,0.0,0.34867113877924505
2.552908068239517e-6,1.1458461490708072,2.291586905759699,4.2689502626216994e-10,0.0,0.9999885415385092,0.2552863140236168,0.5105746653167869,2.037089573726946e-6,0.0,0.23413698357002263
3.0018358135755894e-6,3.135905045604194,6.271465360003684,1.9977883571441835e-9,0.0,0.999968640949544,0.3001750267821153,0.6003533658566279,3.3117917744868307e-6,0.0,0.09946829556948233
3.52970730273065e-6,17727.216449096275,35452.30093328176,1.610962191212624e-5,0.0,0.8227278355090373,0.3333289824090893,0.6666656621983977,5.3358989460491e-6,0.0,1.9493566957662375e-8
4.150404757850476e-6,55610.56125572549,111214.43448409518,6.561855047176257e-5,0.0,0.4438943874427451,0.3333248117582065,0.6666673191306514,7.869007552659789e-6,0.0,1.0358948493610664e-10
4.880251583654431e-6,78513.60740370439,157017.77241986545,0.00012212577468211476,0.0,0.21486392596295617,0.3333199001695482,0.6666692522184061,1.0847492626272096e-5,0.0,1.1941945583209131e-10
5.738441648302394e-6,90845.67678253356,181680.42821678097,0.00018741763387097345,0.0,0.09154323217466453,0.33331412499521124,0.66667152525466,1.4349646804418741e-5,0.0,1.0332439826556952e-10
6.747544053110695e-6,96644.51934576289,193277.41616878659,0.00026350276098638717,0.0,0.03355480654237117,0.33330733439779103,0.6666741979847925,1.8467520272826775e-5,0.0,9.71435910059298e-11
7.934096665797492e-6,98968.66314633454,197925.42454026427,0.0003526096672704737,0.0,0.010313368536654655,0.33329934987288395,0.6666773406961213,2.330933612571915e-5,0.0,9.486899212781123e-11
9.329304026284684e-6,99743.9154474852,199475.83624926835,0.0004572268394267261,0.0,0.0025608455251481532,0.33328996154553164,0.6666810360313579,2.9002328979908905e-5,0.0,9.413063788854406e-11
1.0969857978923835e-5,99951.6158393642,199891.21245982865,0.0005801788216041456,0.0,0.0004838416063580875,0.3332789226626969,0.6666853811626706,3.569608069851584e-5,0.0,9.393398878827439e-11
1.2898902612533087e-5,99994.85249593657,199977.6810512964,0.0007247270150080342,0.0,5.1475040634269e-5,0.3332659431196755,0.6666904903465797,4.356643985320841e-5,0.0,9.389161259050873e-11
1.5167168884709225e-5,100001.71082968614,199991.39745642277,0.0008946781127595078,0.0,-1.7108296861412242e-5,0.3332506818521763,0.6666964979274541,5.2820126486543515e-5,0.0,9.388302139282274e-11
1.7834308769319092e-5,100002.60444157467,199993.18523407623,0.0010944974082873946,0.0,-2.604441574668992e-5,0.3332327378963281,0.6667035618686127,6.370014117949437e-5,0.0,9.387969983104712e-11
2.097046401323233e-5,100002.60379559295,199993.1847197895,0.0013294311759084227,0.0,-2.6037955929425483e-5,0.3332116398846368,0.6667118679037058,7.649211778130749e-5,0.0,9.387608989859866e-11
2.4658110758226026e-5,100002.65341054223,199993.2848579896,0.0016056453494463728,0.0,-2.65341054223045e-5,0.33318683370597146,0.6667216344172854,9.15317828703147e-5,0.0,9.387284139849694e-11
2.899422853882877e-5,100002.64212734129,199993.2633678901,0.0019303865927454442,0.0,-2.642127341273559e-5,0.33315766801101493,0.6667331181825253,0.00010921371259224549,0.0,9.386753924329767e-11
3.409285069746813e-5,100002.64394545466,199993.26826773788,0.002312171141435566,0.0,-2.6439454546556274e-5,0.3331233771902051,0.6667466211064007,0.00013000160953144979,0.0,9.386271715926785e-11
4.008806328898464e-5,100002.64789998355,199993.27766221997,0.0027610062083560836,0.0,-2.647899983540536e-5,0.33308306138788957,0.6667624981589243,0.00015444035932964917,0.0,9.385648402676812e-11
4.713753134116724e-5,100002.6459464222,199993.2755022726,0.0032886496629036177,0.0,-2.645946422186185e-5,0.3330356630427512,0.6667811666938538,0.00018317016954556408,0.0,9.384952971008831e-11
5.542664520663104e-5,100002.64181797329,199993.26929965612,0.003908914401794053,0.0,-2.6418179732839997e-5,0.33297993935925635,0.6668031174044544,0.00021694314244829409,0.0,9.384099682215041e-11
6.517339604882424e-5,100002.64294814748,199993.27397431937,0.00463802491477671,0.0,-2.6429481474743444e-5,0.33291443001609605,0.6668289272003032,0.0002566426897700392,0.0,9.383078526398886e-11
7.66341086800746e-5,100002.6426499643,199993.27621634505,0.005495034715991282,0.0,-2.6426499642878687e-5,0.33283741930375804,0.6668592743408428,0.0003033062615802807,0.0,9.381893254899881e-11
9.011018251665018e-5,100002.6417846782,199993.27782241875,0.00650231464777068,0.0,-2.6417846781950916e-5,0.33274689175259253,0.6668949562196118,0.0003581519339904591,0.0,9.380519603273407e-11
0.0001059560179277616,100002.64027858635,199993.27873239186,0.007686123550456356,0.0,-2.6402785863466338e-5,0.3326404801633336,0.6669369102611613,0.0004226094817162414,0.0,9.378886485804025e-11
0.00012458833642950082,100002.63819449097,199993.27917431647,0.009077274453092154,0.0,-2.638194490964252e-5,0.33251540478213804,0.6669862384724599,0.0004983566516323227,0.0,9.376978382137635e-11
0.00014649713983072864,100002.63590019134,199993.2800040316,0.010711911245338355,0.0,-2.6359001913250912e-5,0.3323684021707114,0.6670442362835989,0.0005873614519424891,0.0,9.374723501827387e-11
0.00017225859653987856,100002.63418080249,199993.28293285033,0.012632412732019744,0.0,-2.634180802485453e-5,0.33219564210796443,0.6671124264210813,0.0006919313772336646,0.0,9.372070101324598e-11
0.00020255019392306664,100002.63163148613,199993.28531689264,0.014888442990384715,0.0,-2.6316314861302148e-5,0.33199263062323936,0.6671925986836261,0.0008147705994447167,0.0,9.368979778188319e-11
0.00023816855519761583,100002.62862692555,199993.28809975612,0.01753816884088784,0.0,-2.6286269255437755e-5,0.33175409700655306,0.6672868566418475,0.0009590462579459291,0.0,9.365345055457192e-11
0.0002800503894183631,100002.6250859979,199993.29134695057,0.020649667505402362,0.0,-2.62508599789546e-5,0.33147386236227616,0.6673976724384879,0.0011284651056253316,0.0,9.361059692160334e-11
0.0003292971255097152,100002.62091390116,199993.2951357314,0.024302548501052717,0.0,-2.6209139011579285e-5,0.3311446869991206,0.6675279510879819,0.0013273618193373026,0.0,9.356020407198795e-11
0.0003872038781812557,100002.6160005957,199993.29955849948,0.02858981515031711,0.0,-2.6160005957009957e-5,0.3307580936672897,0.6676811058818933,0.0015608003573158622,0.0,9.350110594628924e-11
0.00045529350748669476,100002.61021968538,199993.30472809038,0.03361999072536243,0.0,-2.610219685367232e-5,0.3303041634037123,0.6678611467772996,0.0018346897255569078,0.0,9.343124776454992e-11
0.0005353566677410725,100002.60342833237,199993.31078626803,0.03951953237567331,0.0,-2.603428332359492e-5,0.329771300550155,0.6680727839429373,0.0021559154135582246,0.0,9.334941066668767e-11
0.0006294988990221888,100002.59546925526,199993.31791765147,0.046435551490993994,0.0,-2.5954692552537795e-5,0.3291459634142483,0.6683215489775725,0.0025324875149260505,0.0,9.325320637215695e-11
0.0007401959996915645,100002.58617662286,199993.32637282807,0.05453885082362605,0.0,-2.5861766228540972e-5,0.3284123571148114,0.6686139366971674,0.002973706094880615,0.0,9.314055950115918e-11
0.0008703591361485165,100002.57530359969,199993.33633629573,0.06402727477753298,0.0,-2.5753035996778362e-5,0.3275520855038845,0.668957570790015,0.00349034361309235,0.0,9.300811293008748e-11
0.0010234114021054528,100002.56253643385,199993.3479690848,0.07512934203964704,0.0,-2.562536433839413e-5,0.3265437598752204,0.6693613973320474,0.004094842699879643,0.0,9.285266826253302e-11
0.001203377840777589,100002.54759236291,199993.36162061788,0.08810811557919906,0.0,-2.5475923629142416e-5,0.3253625630464001,0.6698359099798449,0.0048015268810850525,0.0,9.266996892076662e-11
0.0014149912974345759,100002.53011432111,199993.3776358372,0.10326519327391843,0.0,-2.530114321108723e-5,0.3239797699854627,0.6703934120592046,0.005626817862876663,0.0,9.245604542379438e-11
0.0016638168860761292,100002.50969208255,199993.39641664087,0.12094464838614699,0.0,-2.5096920825418145e-5,0.32236222905704204,0.6710483207735883,0.006589450077164476,0.0,9.220514976537864e-11
0.001956398343517065,100002.4858564602,199993.41843057208,0.1415366544624224,0.0,-2.4858564602048272e-5,0.3204718126480081,0.6718175192139844,0.0077106680460965775,0.0,9.191089295895738e-11
0.002300430119772917,100002.45807375586,199993.44422058586,0.16548039955618193,0.0,-2.4580737558455024e-5,0.31826485258059045,0.6727207622790002,0.009014385048843046,0.0,9.156626325224071e-11
0.0027049597304631343,100002.42573915639,199993.47441242557,0.1932656262534221,0.0,-2.4257391563753394e-5,0.315691589346856,0.6737811435995373,0.01052726696244315,0.0,9.116358709593264e-11
0.003180625692794119,100002.38817733202,199993.50973377956,0.22543206855927767,0.0,-2.388177332016128e-5,0.3126956688839136,0.6750256295574805,0.01227870146791416,0.0,9.069183772025813e-11
0.0037399373024787977,100002.34463720744,199993.55101964826,0.2625658944258732,0.0,-2.344637207440936e-5,0.3092137363013491,0.6764856591378995,0.014300604470612124,0.0,9.013931615009518e-11
0.004397603609302721,100002.29429266893,199993.59922231192,0.3052913626839382,0.0,-2.2942926689167864e-5,0.305175212317403,0.6781978218166823,0.0166269657764202,0.0,8.949452290352156e-11
0.005170920242896761,100002.23624900017,199993.65542228078,0.35425602161350994,0.0,-2.2362490001703872e-5,0.30050234934727005,0.6802046074207712,0.019293043143214766,0.0,8.874402948610971e-11
0.006080224261649421,100002.1695696976,199993.72086048013,0.41010508568950704,0.0,-2.1695696975909673e-5,0.29511078812070035,0.682555245051663,0.022333966739767064,0.0,8.786960048468018e-11
0.007149428986597577,100002.09329310051,199993.79693562837,0.4734468771413536,0.0,-2.0932931004968847e-5,0.2889105949068711,0.6853065474503734,0.025782857555901772,0.0,8.685368049765607e-11
0.008406652885618326,100002.00644966145,199993.8851687474,0.5448021646610003,0.0,-2.0064496614458083e-5,0.2818081424806115,0.6885237880101153,0.029668069423597947,0.0,8.567530712655369e-11
0.009884959046625588,100001.90813924628,199993.9872435295,0.6245299944490451,0.0,-1.908139246276086e-5,0.2737092416093724,0.6922816084276758,0.03400914987863997,0.0,8.431182141332982e-11
0.011623224686798517,100001.79764472101,199994.10506825167,0.712731377959011,0.0,-1.7976447210105162e-5,0.2645236357975668,0.6966647691777849,0.03881159494191018,0.0,8.273808027592366e-11
0.013667163564620074,100001.67440729895,199994.24052463894,0.809142262617191,0.0,-1.67440729895163e-5,0.2541705209096549,0.7017684545479836,0.04406102446143205,0.0,8.092933267977998e-11
0.016070528182616384,100001.53828912128,199994.39566538294,0.9129626360432456,0.0,-1.538289121277847e-5,0.24258745276880264,0.7076986734291354,0.049713873723203475,0.0,7.885846142752229e-11
0.018896523396912116,100001.38968542565,199994.57259320657,1.022704277757672,0.0,-1.3896854256373325e-5,0.22973967040247045,0.7145712251380586,0.0556891043829742,0.0,7.649675337617623e-11
0.02221946860939524,100001.22951597982,199994.77304463927,1.136021758677562,0.0,-1.2295159798197952e-5,0.21563118236110004,0.7225098108131155,0.06185900675196252,0.0,7.382196937077978e-11
0.026126752255633268,100001.05982801193,199994.99899325686,1.2494687891514904,0.0,-1.059828011920616e-5,0.20032079130514874,0.731643284173434,0.06803592445060906,0.0,7.08080954980872e-11
0.03072112998861759,100000.88325271277,199995.25129772778,1.3584990612943886,0.0,-8.832527127605738e-6,0.18392953500274042,0.7420981503797488,0.07397231455006768,0.0,6.744306502159958e-11
0.0361234269970943,100000.70400279693,199995.53099043886,1.4572374935619263,0.0,-7.040027969335005e-6,0.1666597589064398,0.7539919647299714,0.07934827629987391,0.0,6.371485283818146e-11
0.04247571552536903,100000.5267444368,199995.83719993936,1.538872176844147,0.0,-5.267444367906826e-6,0.14879003501782634,0.7674170526339952,0.08379291228854438,0.0,5.963404769993019e-11
0.049945051158551405,100000.35755029885,199996.1687165965,1.5957515314050803,0.0,-3.575502988406587e-6,0.13068446435961661,0.7824259342224256,0.0868896013627388,0.0,5.5219079309054564e-11
0.05872786613189477,100000.20265745328,199996.522359654,1.6202579152853338,0.0,-2.026574532770775e-6,0.11276912222379026,0.7990072971163269,0.08822358060937177,0.0,5.0511012039677894e-11
0.06905513520162332,100000.06789120677,199996.89300915002,1.605919416972498,0.0,-6.789120676753413e-7,0.09549969202103252,0.8170578304315389,0.0874424775018483,0.0,4.5580317298288264e-11
0.0811984499318401,99999.95851094143,199997.27441824644,1.5483837000558054,0.0,4.1489058577592886e-7,0.07933067569721211,0.8363599948765452,0.08430932938573354,0.0,4.0509151588707937e-11
0.09547716114208066,99999.87759345354,199997.65837354728,1.4470790425556,0.0,1.2240654646833438e-6,0.06465008437979888,0.8565568856615204,0.07879302992327254,0.0,3.5408107001977385e-11
0.11226677735108136,99999.82538241736,199998.0351082838,1.3062314111853914,0.0,1.7461758264336602e-6,0.051732566682218976,0.8771437322959099,0.07112370099146487,0.0,3.0406288598072706e-11
0.13200884008314168,99999.79941793036,199998.3945229051,1.1350259817266686,0.0,2.0058206964823633e-6,0.040713545973606116,0.8974849724093749,0.06180148159138239,0.0,2.5636645584192763e-11
0.15522253574270478,99999.79471091395,199998.72660365587,0.9467992863173929,0.0,2.0528908604988683e-6,0.0315876149033803,0.9168598458137114,0.05155253926167547,0.0,2.1232904323653656e-11
0.18251834943190423,99999.8046549536,199999.02226861034,0.7571041005817984,0.0,1.953450464164952e-6,0.024235868094471286,0.9345404280654603,0.041223703822754136,0.0,1.7314212563679376e-11
0.2146141197858406,99999.82241272858,199999.27433882645,0.5809286717163292,0.0,1.7758727142991315e-6,0.01847586825519713,0.9498930729434157,0.03163105878741301,0.0,1.397415516635192e-11
0.2523539170434766,99999.84218486756,199999.47847444093,0.4299946455026631,0.0,1.5781513243440237e-6,0.014106131225135047,0.9624810484416995,0.023412820321895438,0.0,1.1270057803658418e-11
0.29673024081888666,99999.8599868371,199999.6339520614,0.3109576820437486,0.0,1.4001316291090138e-6,0.010927952122846096,0.9721406807619066,0.016931367106036346,0.0,9.210885526522716e-12
0.3489101213406774,99999.87379960566,199999.74400645666,0.2249710868383646,0.0,1.2620039434307895e-6,0.008744507213687107,0.9790060091460038,0.012249483632555786,0.0,7.75330320779144e-12
0.41026581058271905,99999.883222875,199999.81541744538,0.1685535118578357,0.0,1.16777125011569e-6,0.007352892031803089,0.98346950124268,0.009177606718709264,0.0,6.807665542396535e-12
0.4824108704165374,99999.88889000854,199999.85723895795,0.13532184089617155,0.0,1.111099914574698e-6,0.006546003440116445,0.9860858178255171,0.007368178728112673,0.0,6.253786551113638e-12
0.5672426068491978,99999.89187027601,199999.87893378254,0.11803412989682475,0.0,1.0812972399409926e-6,0.0061296374641598055,0.987443480345935,0.00642688218393881,0.0,5.966360218379041e-12
0.6669919663030115,99999.8932206939,199999.88870172398,0.11024042426823034,0.0,1.067793061054756e-6,0.005942639859480815,0.98805483643852,0.006002523696162117,0.0,5.837046124224088e-12
0.7842822061337682,99999.89373665972,199999.89242402161,0.10726884515336195,0.0,1.0626334027985518e-6,0.005871453926841972,0.9882878214933242,0.005840724574045863,0.0,5.7880037568347475e-12
0.9221978823334323,99999.89389866605,199999.89359168947,0.10633649439153715,0.0,1.0610133395483334e-6,0.005849131442330374,0.988360909421143,0.005789959130754293,0.0,5.772397317083122e-12
1.084365968689611,99999.89393919753,199999.89388374225,0.10610328468553144,0.0,1.0606080247388405e-6,0.005843548829640903,0.988379190038181,0.0057772611264095075,0.0,5.768627762969825e-12
1.2750512407130128,99999.89394691944,199999.89393937855,0.10605885740361762,0.0,1.0605308056743645e-6,0.00584248536810462,0.9883826725148912,0.005774842111236164,0.0,5.768022344476709e-12
1.4992684327860473,99999.89394797539,199999.89394698682,0.10605278191267221,0.0,1.0605202462043994e-6,0.005842339940628415,0.9883831487459672,0.0057745113076364775,0.0,5.767862749916919e-12
1.762914118095948,99999.89394812779,199999.89394808488,0.10605190508683317,0.0,1.0605187221457424e-6,0.0058423189514928715,0.9883832174772768,0.005774463565462778,0.0,5.767570449011217e-12
